#   8Li + 208Pb elastic scattering Elab=31 Mev
# --------- Optical Potential ---------  
#     r(fm)       V(MeV)       W(MeV)
       0.00       -91.6966     0.0000E+00
       0.01       -91.6966     0.0000E+00
       0.02       -91.6966     0.0000E+00
       0.03       -91.6966     0.0000E+00
       0.04       -91.6968     0.0000E+00
       0.05       -91.6970     0.0000E+00
       0.06       -91.6973     0.0000E+00
       0.07       -91.6976     0.0000E+00
       0.08       -91.6978     0.0000E+00
       0.09       -91.6982     0.0000E+00
       0.10       -91.6987     0.0000E+00
       0.11       -91.6992     0.0000E+00
       0.12       -91.6996     0.0000E+00
       0.13       -91.7002     0.0000E+00
       0.14       -91.7008     0.0000E+00
       0.15       -91.7015     0.0000E+00
       0.16       -91.7021     0.0000E+00
       0.17       -91.7029     0.0000E+00
       0.18       -91.7037     0.0000E+00
       0.19       -91.7045     0.0000E+00
       0.20       -91.7054     0.0000E+00
       0.21       -91.7064     0.0000E+00
       0.22       -91.7074     0.0000E+00
       0.23       -91.7083     0.0000E+00
       0.24       -91.7094     0.0000E+00
       0.25       -91.7106     0.0000E+00
       0.26       -91.7118     0.0000E+00
       0.27       -91.7129     0.0000E+00
       0.28       -91.7142     0.0000E+00
       0.29       -91.7155     0.0000E+00
       0.30       -91.7168     0.0000E+00
       0.31       -91.7182     0.0000E+00
       0.32       -91.7197     0.0000E+00
       0.33       -91.7211     0.0000E+00
       0.34       -91.7227     0.0000E+00
       0.35       -91.7243     0.0000E+00
       0.36       -91.7259     0.0000E+00
       0.37       -91.7276     0.0000E+00
       0.38       -91.7293     0.0000E+00
       0.39       -91.7310     0.0000E+00
       0.40       -91.7329     0.0000E+00
       0.41       -91.7348     0.0000E+00
       0.42       -91.7366     0.0000E+00
       0.43       -91.7386     0.0000E+00
       0.44       -91.7406     0.0000E+00
       0.45       -91.7426     0.0000E+00
       0.46       -91.7447     0.0000E+00
       0.47       -91.7468     0.0000E+00
       0.48       -91.7490     0.0000E+00
       0.49       -91.7513     0.0000E+00
       0.50       -91.7535     0.0000E+00
       0.51       -91.7559     0.0000E+00
       0.52       -91.7583     0.0000E+00
       0.53       -91.7607     0.0000E+00
       0.54       -91.7632     0.0000E+00
       0.55       -91.7656     0.0000E+00
       0.56       -91.7682     0.0000E+00
       0.57       -91.7709     0.0000E+00
       0.58       -91.7734     0.0000E+00
       0.59       -91.7762     0.0000E+00
       0.60       -91.7789     0.0000E+00
       0.61       -91.7817     0.0000E+00
       0.62       -91.7845     0.0000E+00
       0.63       -91.7874     0.0000E+00
       0.64       -91.7903     0.0000E+00
       0.65       -91.7933     0.0000E+00
       0.66       -91.7963     0.0000E+00
       0.67       -91.7994     0.0000E+00
       0.68       -91.8024     0.0000E+00
       0.69       -91.8056     0.0000E+00
       0.70       -91.8088     0.0000E+00
       0.71       -91.8121     0.0000E+00
       0.72       -91.8153     0.0000E+00
       0.73       -91.8187     0.0000E+00
       0.74       -91.8221     0.0000E+00
       0.75       -91.8256     0.0000E+00
       0.76       -91.8290     0.0000E+00
       0.77       -91.8326     0.0000E+00
       0.78       -91.8361     0.0000E+00
       0.79       -91.8398     0.0000E+00
       0.80       -91.8434     0.0000E+00
       0.81       -91.8470     0.0000E+00
       0.82       -91.8509     0.0000E+00
       0.83       -91.8546     0.0000E+00
       0.84       -91.8585     0.0000E+00
       0.85       -91.8624     0.0000E+00
       0.86       -91.8663     0.0000E+00
       0.87       -91.8703     0.0000E+00
       0.88       -91.8743     0.0000E+00
       0.89       -91.8785     0.0000E+00
       0.90       -91.8826     0.0000E+00
       0.91       -91.8867     0.0000E+00
       0.92       -91.8910     0.0000E+00
       0.93       -91.8952     0.0000E+00
       0.94       -91.8995     0.0000E+00
       0.95       -91.9038     0.0000E+00
       0.96       -91.9083     0.0000E+00
       0.97       -91.9127     0.0000E+00
       0.98       -91.9171     0.0000E+00
       0.99       -91.9218     0.0000E+00
       1.00       -91.9263     0.0000E+00
       1.01       -91.9309     0.0000E+00
       1.02       -91.9356     0.0000E+00
       1.03       -91.9404     0.0000E+00
       1.04       -91.9451     0.0000E+00
       1.05       -91.9499     0.0000E+00
       1.06       -91.9547     0.0000E+00
       1.07       -91.9596     0.0000E+00
       1.08       -91.9647     0.0000E+00
       1.09       -91.9696     0.0000E+00
       1.10       -91.9746     0.0000E+00
       1.11       -91.9797     0.0000E+00
       1.12       -91.9848     0.0000E+00
       1.13       -91.9901     0.0000E+00
       1.14       -91.9953     0.0000E+00
       1.15       -92.0006     0.0000E+00
       1.16       -92.0059     0.0000E+00
       1.17       -92.0112     0.0000E+00
       1.18       -92.0166     0.0000E+00
       1.19       -92.0221     0.0000E+00
       1.20       -92.0276     0.0000E+00
       1.21       -92.0331     0.0000E+00
       1.22       -92.0387     0.0000E+00
       1.23       -92.0443     0.0000E+00
       1.24       -92.0500     0.0000E+00
       1.25       -92.0557     0.0000E+00
       1.26       -92.0615     0.0000E+00
       1.27       -92.0673     0.0000E+00
       1.28       -92.0732     0.0000E+00
       1.29       -92.0791     0.0000E+00
       1.30       -92.0851     0.0000E+00
       1.31       -92.0911     0.0000E+00
       1.32       -92.0971     0.0000E+00
       1.33       -92.1032     0.0000E+00
       1.34       -92.1094     0.0000E+00
       1.35       -92.1155     0.0000E+00
       1.36       -92.1217     0.0000E+00
       1.37       -92.1280     0.0000E+00
       1.38       -92.1343     0.0000E+00
       1.39       -92.1407     0.0000E+00
       1.40       -92.1471     0.0000E+00
       1.41       -92.1535     0.0000E+00
       1.42       -92.1600     0.0000E+00
       1.43       -92.1666     0.0000E+00
       1.44       -92.1732     0.0000E+00
       1.45       -92.1798     0.0000E+00
       1.46       -92.1865     0.0000E+00
       1.47       -92.1932     0.0000E+00
       1.48       -92.1999     0.0000E+00
       1.49       -92.2068     0.0000E+00
       1.50       -92.2137     0.0000E+00
       1.51       -92.2205     0.0000E+00
       1.52       -92.2275     0.0000E+00
       1.53       -92.2344     0.0000E+00
       1.54       -92.2415     0.0000E+00
       1.55       -92.2487     0.0000E+00
       1.56       -92.2557     0.0000E+00
       1.57       -92.2630     0.0000E+00
       1.58       -92.2701     0.0000E+00
       1.59       -92.2775     0.0000E+00
       1.60       -92.2847     0.0000E+00
       1.61       -92.2920     0.0000E+00
       1.62       -92.2995     0.0000E+00
       1.63       -92.3069     0.0000E+00
       1.64       -92.3143     0.0000E+00
       1.65       -92.3219     0.0000E+00
       1.66       -92.3295     0.0000E+00
       1.67       -92.3372     0.0000E+00
       1.68       -92.3448     0.0000E+00
       1.69       -92.3525     0.0000E+00
       1.70       -92.3602     0.0000E+00
       1.71       -92.3681     0.0000E+00
       1.72       -92.3759     0.0000E+00
       1.73       -92.3838     0.0000E+00
       1.74       -92.3917     0.0000E+00
       1.75       -92.3997     0.0000E+00
       1.76       -92.4077     0.0000E+00
       1.77       -92.4158     0.0000E+00
       1.78       -92.4239     0.0000E+00
       1.79       -92.4320     0.0000E+00
       1.80       -92.4402     0.0000E+00
       1.81       -92.4485     0.0000E+00
       1.82       -92.4567     0.0000E+00
       1.83       -92.4651     0.0000E+00
       1.84       -92.4735     0.0000E+00
       1.85       -92.4819     0.0000E+00
       1.86       -92.4904     0.0000E+00
       1.87       -92.4989     0.0000E+00
       1.88       -92.5075     0.0000E+00
       1.89       -92.5160     0.0000E+00
       1.90       -92.5247     0.0000E+00
       1.91       -92.5334     0.0000E+00
       1.92       -92.5421     0.0000E+00
       1.93       -92.5509     0.0000E+00
       1.94       -92.5597     0.0000E+00
       1.95       -92.5685     0.0000E+00
       1.96       -92.5775     0.0000E+00
       1.97       -92.5864     0.0000E+00
       1.98       -92.5954     0.0000E+00
       1.99       -92.6044     0.0000E+00
       2.00       -92.6135     0.0000E+00
       2.01       -92.6226     0.0000E+00
       2.02       -92.6318     0.0000E+00
       2.03       -92.6410     0.0000E+00
       2.04       -92.6502     0.0000E+00
       2.05       -92.6596     0.0000E+00
       2.06       -92.6689     0.0000E+00
       2.07       -92.6783     0.0000E+00
       2.08       -92.6877     0.0000E+00
       2.09       -92.6972     0.0000E+00
       2.10       -92.7067     0.0000E+00
       2.11       -92.7162     0.0000E+00
       2.12       -92.7258     0.0000E+00
       2.13       -92.7356     0.0000E+00
       2.14       -92.7451     0.0000E+00
       2.15       -92.7549     0.0000E+00
       2.16       -92.7647     0.0000E+00
       2.17       -92.7745     0.0000E+00
       2.18       -92.7844     0.0000E+00
       2.19       -92.7943     0.0000E+00
       2.20       -92.8042     0.0000E+00
       2.21       -92.8142     0.0000E+00
       2.22       -92.8242     0.0000E+00
       2.23       -92.8343     0.0000E+00
       2.24       -92.8444     0.0000E+00
       2.25       -92.8545     0.0000E+00
       2.26       -92.8648     0.0000E+00
       2.27       -92.8750     0.0000E+00
       2.28       -92.8852     0.0000E+00
       2.29       -92.8956     0.0000E+00
       2.30       -92.9060     0.0000E+00
       2.31       -92.9163     0.0000E+00
       2.32       -92.9269     0.0000E+00
       2.33       -92.9374     0.0000E+00
       2.34       -92.9479     0.0000E+00
       2.35       -92.9585     0.0000E+00
       2.36       -92.9691     0.0000E+00
       2.37       -92.9798     0.0000E+00
       2.38       -92.9905     0.0000E+00
       2.39       -93.0011     0.0000E+00
       2.40       -93.0119     0.0000E+00
       2.41       -93.0228     0.0000E+00
       2.42       -93.0336     0.0000E+00
       2.43       -93.0445     0.0000E+00
       2.44       -93.0555     0.0000E+00
       2.45       -93.0665     0.0000E+00
       2.46       -93.0775     0.0000E+00
       2.47       -93.0886     0.0000E+00
       2.48       -93.0997     0.0000E+00
       2.49       -93.1109     0.0000E+00
       2.50       -93.1221     0.0000E+00
       2.51       -93.1333     0.0000E+00
       2.52       -93.1446     0.0000E+00
       2.53       -93.1559     0.0000E+00
       2.54       -93.1673     0.0000E+00
       2.55       -93.1787     0.0000E+00
       2.56       -93.1901     0.0000E+00
       2.57       -93.2016     0.0000E+00
       2.58       -93.2131     0.0000E+00
       2.59       -93.2247     0.0000E+00
       2.60       -93.2363     0.0000E+00
       2.61       -93.2479     0.0000E+00
       2.62       -93.2596     0.0000E+00
       2.63       -93.2713     0.0000E+00
       2.64       -93.2831     0.0000E+00
       2.65       -93.2949     0.0000E+00
       2.66       -93.3068     0.0000E+00
       2.67       -93.3186     0.0000E+00
       2.68       -93.3305     0.0000E+00
       2.69       -93.3425     0.0000E+00
       2.70       -93.3544     0.0000E+00
       2.71       -93.3665     0.0000E+00
       2.72       -93.3786     0.0000E+00
       2.73       -93.3907     0.0000E+00
       2.74       -93.4028     0.0000E+00
       2.75       -93.4151     0.0000E+00
       2.76       -93.4273     0.0000E+00
       2.77       -93.4395     0.0000E+00
       2.78       -93.4519     0.0000E+00
       2.79       -93.4642     0.0000E+00
       2.80       -93.4766     0.0000E+00
       2.81       -93.4890     0.0000E+00
       2.82       -93.5015     0.0000E+00
       2.83       -93.5139     0.0000E+00
       2.84       -93.5265     0.0000E+00
       2.85       -93.5391     0.0000E+00
       2.86       -93.5517     0.0000E+00
       2.87       -93.5644     0.0000E+00
       2.88       -93.5770     0.0000E+00
       2.89       -93.5897     0.0000E+00
       2.90       -93.6025     0.0000E+00
       2.91       -93.6153     0.0000E+00
       2.92       -93.6281     0.0000E+00
       2.93       -93.6410     0.0000E+00
       2.94       -93.6539     0.0000E+00
       2.95       -93.6668     0.0000E+00
       2.96       -93.6798     0.0000E+00
       2.97       -93.6928     0.0000E+00
       2.98       -93.7058     0.0000E+00
       2.99       -93.7190     0.0000E+00
       3.00       -93.7321     0.0000E+00
       3.01       -93.7453     0.0000E+00
       3.02       -93.7585     0.0000E+00
       3.03       -93.7716     0.0000E+00
       3.04       -93.7849     0.0000E+00
       3.05       -93.7982     0.0000E+00
       3.06       -93.8116     0.0000E+00
       3.07       -93.8249     0.0000E+00
       3.08       -93.8383     0.0000E+00
       3.09       -93.8517     0.0000E+00
       3.10       -93.8652     0.0000E+00
       3.11       -93.8787     0.0000E+00
       3.12       -93.8922     0.0000E+00
       3.13       -93.9058     0.0000E+00
       3.14       -93.9194     0.0000E+00
       3.15       -93.9330     0.0000E+00
       3.16       -93.9468     0.0000E+00
       3.17       -93.9604     0.0000E+00
       3.18       -93.9742     0.0000E+00
       3.19       -93.9880     0.0000E+00
       3.20       -94.0018     0.0000E+00
       3.21       -94.0156     0.0000E+00
       3.22       -94.0295     0.0000E+00
       3.23       -94.0434     0.0000E+00
       3.24       -94.0573     0.0000E+00
       3.25       -94.0713     0.0000E+00
       3.26       -94.0853     0.0000E+00
       3.27       -94.0993     0.0000E+00
       3.28       -94.1133     0.0000E+00
       3.29       -94.1275     0.0000E+00
       3.30       -94.1416     0.0000E+00
       3.31       -94.1557     0.0000E+00
       3.32       -94.1699     0.0000E+00
       3.33       -94.1842     0.0000E+00
       3.34       -94.1984     0.0000E+00
       3.35       -94.2126     0.0000E+00
       3.36       -94.2269     0.0000E+00
       3.37       -94.2413     0.0000E+00
       3.38       -94.2557     0.0000E+00
       3.39       -94.2700     0.0000E+00
       3.40       -94.2844     0.0000E+00
       3.41       -94.2988     0.0000E+00
       3.42       -94.3133     0.0000E+00
       3.43       -94.3278     0.0000E+00
       3.44       -94.3424     0.0000E+00
       3.45       -94.3569     0.0000E+00
       3.46       -94.3715     0.0000E+00
       3.47       -94.3861     0.0000E+00
       3.48       -94.4007     0.0000E+00
       3.49       -94.4154     0.0000E+00
       3.50       -94.4301     0.0000E+00
       3.51       -94.4448     0.0000E+00
       3.52       -94.4596     0.0000E+00
       3.53       -94.4743     0.0000E+00
       3.54       -94.4891     0.0000E+00
       3.55       -94.5039     0.0000E+00
       3.56       -94.5187     0.0000E+00
       3.57       -94.5336     0.0000E+00
       3.58       -94.5484     0.0000E+00
       3.59       -94.5634     0.0000E+00
       3.60       -94.5783     0.0000E+00
       3.61       -94.5933     0.0000E+00
       3.62       -94.6082     0.0000E+00
       3.63       -94.6233     0.0000E+00
       3.64       -94.6383     0.0000E+00
       3.65       -94.6534     0.0000E+00
       3.66       -94.6685     0.0000E+00
       3.67       -94.6835     0.0000E+00
       3.68       -94.6986     0.0000E+00
       3.69       -94.7137     0.0000E+00
       3.70       -94.7289     0.0000E+00
       3.71       -94.7441     0.0000E+00
       3.72       -94.7593     0.0000E+00
       3.73       -94.7745     0.0000E+00
       3.74       -94.7897     0.0000E+00
       3.75       -94.8050     0.0000E+00
       3.76       -94.8202     0.0000E+00
       3.77       -94.8355     0.0000E+00
       3.78       -94.8508     0.0000E+00
       3.79       -94.8662     0.0000E+00
       3.80       -94.8814     0.0000E+00
       3.81       -94.8968     0.0000E+00
       3.82       -94.9122     0.0000E+00
       3.83       -94.9276     0.0000E+00
       3.84       -94.9429     0.0000E+00
       3.85       -94.9583     0.0000E+00
       3.86       -94.9738     0.0000E+00
       3.87       -94.9892     0.0000E+00
       3.88       -95.0047     0.0000E+00
       3.89       -95.0202     0.0000E+00
       3.90       -95.0357     0.0000E+00
       3.91       -95.0512     0.0000E+00
       3.92       -95.0667     0.0000E+00
       3.93       -95.0821     0.0000E+00
       3.94       -95.0977     0.0000E+00
       3.95       -95.1132     0.0000E+00
       3.96       -95.1287     0.0000E+00
       3.97       -95.1443     0.0000E+00
       3.98       -95.1599     0.0000E+00
       3.99       -95.1754     0.0000E+00
       4.00       -95.1910     0.0000E+00
       4.01       -95.2067     0.0000E+00
       4.02       -95.2222     0.0000E+00
       4.03       -95.2379     0.0000E+00
       4.04       -95.2535     0.0000E+00
       4.05       -95.2691     0.0000E+00
       4.06       -95.2847     0.0000E+00
       4.07       -95.3003     0.0000E+00
       4.08       -95.3160     0.0000E+00
       4.09       -95.3316     0.0000E+00
       4.10       -95.3472     0.0000E+00
       4.11       -95.3629     0.0000E+00
       4.12       -95.3785     0.0000E+00
       4.13       -95.3942     0.0000E+00
       4.14       -95.4099     0.0000E+00
       4.15       -95.4254     0.0000E+00
       4.16       -95.4411     0.0000E+00
       4.17       -95.4568     0.0000E+00
       4.18       -95.4724     0.0000E+00
       4.19       -95.4880     0.0000E+00
       4.20       -95.5037     0.0000E+00
       4.21       -95.5193     0.0000E+00
       4.22       -95.5349     0.0000E+00
       4.23       -95.5506     0.0000E+00
       4.24       -95.5662     0.0000E+00
       4.25       -95.5818     0.0000E+00
       4.26       -95.5975     0.0000E+00
       4.27       -95.6131     0.0000E+00
       4.28       -95.6287     0.0000E+00
       4.29       -95.6442     0.0000E+00
       4.30       -95.6598     0.0000E+00
       4.31       -95.6753     0.0000E+00
       4.32       -95.6909     0.0000E+00
       4.33       -95.7065     0.0000E+00
       4.34       -95.7221     0.0000E+00
       4.35       -95.7376     0.0000E+00
       4.36       -95.7531     0.0000E+00
       4.37       -95.7686     0.0000E+00
       4.38       -95.7841     0.0000E+00
       4.39       -95.7995     0.0000E+00
       4.40       -95.8150     0.0000E+00
       4.41       -95.8304     0.0000E+00
       4.42       -95.8458     0.0000E+00
       4.43       -95.8613     0.0000E+00
       4.44       -95.8766     0.0000E+00
       4.45       -95.8919     0.0000E+00
       4.46       -95.9072     0.0000E+00
       4.47       -95.9226     0.0000E+00
       4.48       -95.9379     0.0000E+00
       4.49       -95.9532     0.0000E+00
       4.50       -95.9684     0.0000E+00
       4.51       -95.9836     0.0000E+00
       4.52       -95.9988     0.0000E+00
       4.53       -96.0140     0.0000E+00
       4.54       -96.0291     0.0000E+00
       4.55       -96.0442     0.0000E+00
       4.56       -96.0593     0.0000E+00
       4.57       -96.0743     0.0000E+00
       4.58       -96.0893     0.0000E+00
       4.59       -96.1043     0.0000E+00
       4.60       -96.1192     0.0000E+00
       4.61       -96.1342     0.0000E+00
       4.62       -96.1490     0.0000E+00
       4.63       -96.1638     0.0000E+00
       4.64       -96.1786     0.0000E+00
       4.65       -96.1934     0.0000E+00
       4.66       -96.2081     0.0000E+00
       4.67       -96.2228     0.0000E+00
       4.68       -96.2374     0.0000E+00
       4.69       -96.2520     0.0000E+00
       4.70       -96.2665     0.0000E+00
       4.71       -96.2810     0.0000E+00
       4.72       -96.2955     0.0000E+00
       4.73       -96.3099     0.0000E+00
       4.74       -96.3243     0.0000E+00
       4.75       -96.3386     0.0000E+00
       4.76       -96.3528     0.0000E+00
       4.77       -96.3670     0.0000E+00
       4.78       -96.3812     0.0000E+00
       4.79       -96.3953     0.0000E+00
       4.80       -96.4093     0.0000E+00
       4.81       -96.4233     0.0000E+00
       4.82       -96.4372     0.0000E+00
       4.83       -96.4510     0.0000E+00
       4.84       -96.4648     0.0000E+00
       4.85       -96.4786     0.0000E+00
       4.86       -96.4922     0.0000E+00
       4.87       -96.5058     0.0000E+00
       4.88       -96.5194     0.0000E+00
       4.89       -96.5328     0.0000E+00
       4.90       -96.5462     0.0000E+00
       4.91       -96.5595     0.0000E+00
       4.92       -96.5728     0.0000E+00
       4.93       -96.5860     0.0000E+00
       4.94       -96.5991     0.0000E+00
       4.95       -96.6121     0.0000E+00
       4.96       -96.6250     0.0000E+00
       4.97       -96.6378     0.0000E+00
       4.98       -96.6506     0.0000E+00
       4.99       -96.6633     0.0000E+00
       5.00       -96.6760     0.0000E+00
       5.01       -96.6884     0.0000E+00
       5.02       -96.7009     0.0000E+00
       5.03       -96.7132     0.0000E+00
       5.04       -96.7255     0.0000E+00
       5.05       -96.7376     0.0000E+00
       5.06       -96.7497     0.0000E+00
       5.07       -96.7616     0.0000E+00
       5.08       -96.7736     0.0000E+00
       5.09       -96.7853     0.0000E+00
       5.10       -96.7970     0.0000E+00
       5.11       -96.8085     0.0000E+00
       5.12       -96.8199     0.0000E+00
       5.13       -96.8313     0.0000E+00
       5.14       -96.8425     0.0000E+00
       5.15       -96.8536     0.0000E+00
       5.16       -96.8646     0.0000E+00
       5.17       -96.8756     0.0000E+00
       5.18       -96.8863     0.0000E+00
       5.19       -96.8970     0.0000E+00
       5.20       -96.9075     0.0000E+00
       5.21       -96.9180     0.0000E+00
       5.22       -96.9283     0.0000E+00
       5.23       -96.9384     0.0000E+00
       5.24       -96.9484     0.0000E+00
       5.25       -96.9582     0.0000E+00
       5.26       -96.9680     0.0000E+00
       5.27       -96.9777     0.0000E+00
       5.28       -96.9872     0.0000E+00
       5.29       -96.9965     0.0000E+00
       5.30       -97.0057     0.0000E+00
       5.31       -97.0147     0.0000E+00
       5.32       -97.0236     0.0000E+00
       5.33       -97.0324     0.0000E+00
       5.34       -97.0409     0.0000E+00
       5.35       -97.0495     0.0000E+00
       5.36       -97.0577     0.0000E+00
       5.37       -97.0658     0.0000E+00
       5.38       -97.0738     0.0000E+00
       5.39       -97.0816     0.0000E+00
       5.40       -97.0892     0.0000E+00
       5.41       -97.0967     0.0000E+00
       5.42       -97.1039     0.0000E+00
       5.43       -97.1110     0.0000E+00
       5.44       -97.1180     0.0000E+00
       5.45       -97.1247     0.0000E+00
       5.46       -97.1313     0.0000E+00
       5.47       -97.1376     0.0000E+00
       5.48       -97.1439     0.0000E+00
       5.49       -97.1498     0.0000E+00
       5.50       -97.1556     0.0000E+00
       5.51       -97.1613     0.0000E+00
       5.52       -97.1667     0.0000E+00
       5.53       -97.1719     0.0000E+00
       5.54       -97.1769     0.0000E+00
       5.55       -97.1816     0.0000E+00
       5.56       -97.1862     0.0000E+00
       5.57       -97.1906     0.0000E+00
       5.58       -97.1946     0.0000E+00
       5.59       -97.1986     0.0000E+00
       5.60       -97.2023     0.0000E+00
       5.61       -97.2057     0.0000E+00
       5.62       -97.2090     0.0000E+00
       5.63       -97.2120     0.0000E+00
       5.64       -97.2147     0.0000E+00
       5.65       -97.2172     0.0000E+00
       5.66       -97.2194     0.0000E+00
       5.67       -97.2214     0.0000E+00
       5.68       -97.2232     0.0000E+00
       5.69       -97.2247     0.0000E+00
       5.70       -97.2259     0.0000E+00
       5.71       -97.2269     0.0000E+00
       5.72       -97.2276     0.0000E+00
       5.73       -97.2281     0.0000E+00
       5.74       -97.2282     0.0000E+00
       5.75       -97.2281     0.0000E+00
       5.76       -97.2277     0.0000E+00
       5.77       -97.2270     0.0000E+00
       5.78       -97.2260     0.0000E+00
       5.79       -97.2247     0.0000E+00
       5.80       -97.2231     0.0000E+00
       5.81       -97.2213     0.0000E+00
       5.82       -97.2191     0.0000E+00
       5.83       -97.2166     0.0000E+00
       5.84       -97.2137     0.0000E+00
       5.85       -97.2106     0.0000E+00
       5.86       -97.2072     0.0000E+00
       5.87       -97.2035     0.0000E+00
       5.88       -97.1993     0.0000E+00
       5.89       -97.1949     0.0000E+00
       5.90       -97.1901     0.0000E+00
       5.91       -97.1849     0.0000E+00
       5.92       -97.1795     0.0000E+00
       5.93       -97.1736     0.0000E+00
       5.94       -97.1674     0.0000E+00
       5.95       -97.1608     0.0000E+00
       5.96       -97.1539     0.0000E+00
       5.97       -97.1466     0.0000E+00
       5.98       -97.1389     0.0000E+00
       5.99       -97.1308     0.0000E+00
       6.00       -97.1224     0.0000E+00
       6.01       -97.1135     0.0000E+00
       6.02       -97.1042     0.0000E+00
       6.03       -97.0945     0.0000E+00
       6.04       -97.0845     0.0000E+00
       6.05       -97.0740     0.0000E+00
       6.06       -97.0631     0.0000E+00
       6.07       -97.0518     0.0000E+00
       6.08       -97.0400     0.0000E+00
       6.09       -97.0278     0.0000E+00
       6.10       -97.0152     0.0000E+00
       6.11       -97.0021     0.0000E+00
       6.12       -96.9885     0.0000E+00
       6.13       -96.9745     0.0000E+00
       6.14       -96.9600     0.0000E+00
       6.15       -96.9451     0.0000E+00
       6.16       -96.9297     0.0000E+00
       6.17       -96.9139     0.0000E+00
       6.18       -96.8975     0.0000E+00
       6.19       -96.8806     0.0000E+00
       6.20       -96.8632     0.0000E+00
       6.21       -96.8453     0.0000E+00
       6.22       -96.8269     0.0000E+00
       6.23       -96.8080     0.0000E+00
       6.24       -96.7885     0.0000E+00
       6.25       -96.7686     0.0000E+00
       6.26       -96.7481     0.0000E+00
       6.27       -96.7270     0.0000E+00
       6.28       -96.7054     0.0000E+00
       6.29       -96.6833     0.0000E+00
       6.30       -96.6605     0.0000E+00
       6.31       -96.6373     0.0000E+00
       6.32       -96.6134     0.0000E+00
       6.33       -96.5889     0.0000E+00
       6.34       -96.5638     0.0000E+00
       6.35       -96.5381     0.0000E+00
       6.36       -96.5119     0.0000E+00
       6.37       -96.4851     0.0000E+00
       6.38       -96.4576     0.0000E+00
       6.39       -96.4295     0.0000E+00
       6.40       -96.4007     0.0000E+00
       6.41       -96.3713     0.0000E+00
       6.42       -96.3412     0.0000E+00
       6.43       -96.3105     0.0000E+00
       6.44       -96.2792     0.0000E+00
       6.45       -96.2470     0.0000E+00
       6.46       -96.2143     0.0000E+00
       6.47       -96.1809     0.0000E+00
       6.48       -96.1468     0.0000E+00
       6.49       -96.1119     0.0000E+00
       6.50       -96.0764     0.0000E+00
       6.51       -96.0402     0.0000E+00
       6.52       -96.0032     0.0000E+00
       6.53       -95.9655     0.0000E+00
       6.54       -95.9270     0.0000E+00
       6.55       -95.8878     0.0000E+00
       6.56       -95.8478     0.0000E+00
       6.57       -95.8070     0.0000E+00
       6.58       -95.7655     0.0000E+00
       6.59       -95.7232     0.0000E+00
       6.60       -95.6800     0.0000E+00
       6.61       -95.6361     0.0000E+00
       6.62       -95.5914     0.0000E+00
       6.63       -95.5458     0.0000E+00
       6.64       -95.4994     0.0000E+00
       6.65       -95.4522     0.0000E+00
       6.66       -95.4040     0.0000E+00
       6.67       -95.3551     0.0000E+00
       6.68       -95.3052     0.0000E+00
       6.69       -95.2545     0.0000E+00
       6.70       -95.2029     0.0000E+00
       6.71       -95.1504     0.0000E+00
       6.72       -95.0970     0.0000E+00
       6.73       -95.0427     0.0000E+00
       6.74       -94.9875     0.0000E+00
       6.75       -94.9313     0.0000E+00
       6.76       -94.8742     0.0000E+00
       6.77       -94.8160     0.0000E+00
       6.78       -94.7570     0.0000E+00
       6.79       -94.6970     0.0000E+00
       6.80       -94.6359     0.0000E+00
       6.81       -94.5739     0.0000E+00
       6.82       -94.5109     0.0000E+00
       6.83       -94.4468     0.0000E+00
       6.84       -94.3818     0.0000E+00
       6.85       -94.3157     0.0000E+00
       6.86       -94.2486     0.0000E+00
       6.87       -94.1803     0.0000E+00
       6.88       -94.1109     0.0000E+00
       6.89       -94.0407     0.0000E+00
       6.90       -93.9691     0.0000E+00
       6.91       -93.8965     0.0000E+00
       6.92       -93.8229     0.0000E+00
       6.93       -93.7481     0.0000E+00
       6.94       -93.6722     0.0000E+00
       6.95       -93.5951     0.0000E+00
       6.96       -93.5168     0.0000E+00
       6.97       -93.4374     0.0000E+00
       6.98       -93.3568     0.0000E+00
       6.99       -93.2750     0.0000E+00
       7.00       -93.1921     0.0000E+00
       7.01       -93.1078     0.0000E+00
       7.02       -93.0224     0.0000E+00
       7.03       -92.9357     0.0000E+00
       7.04       -92.8478     0.0000E+00
       7.05       -92.7586     0.0000E+00
       7.06       -92.6681     0.0000E+00
       7.07       -92.5765     0.0000E+00
       7.08       -92.4834     0.0000E+00
       7.09       -92.3891     0.0000E+00
       7.10       -92.2935     0.0000E+00
       7.11       -92.1964     0.0000E+00
       7.12       -92.0981     0.0000E+00
       7.13       -91.9984     0.0000E+00
       7.14       -91.8974     0.0000E+00
       7.15       -91.7950     0.0000E+00
       7.16       -91.6911     0.0000E+00
       7.17       -91.5860     0.0000E+00
       7.18       -91.4793     0.0000E+00
       7.19       -91.3713     0.0000E+00
       7.20       -91.2617     0.0000E+00
       7.21       -91.1509     0.0000E+00
       7.22       -91.0384     0.0000E+00
       7.23       -90.9245     0.0000E+00
       7.24       -90.8092     0.0000E+00
       7.25       -90.6923     0.0000E+00
       7.26       -90.5738     0.0000E+00
       7.27       -90.4539     0.0000E+00
       7.28       -90.3326     0.0000E+00
       7.29       -90.2096     0.0000E+00
       7.30       -90.0850     0.0000E+00
       7.31       -89.9589     0.0000E+00
       7.32       -89.8311     0.0000E+00
       7.33       -89.7018     0.0000E+00
       7.34       -89.5709     0.0000E+00
       7.35       -89.4384     0.0000E+00
       7.36       -89.3042     0.0000E+00
       7.37       -89.1684     0.0000E+00
       7.38       -89.0309     0.0000E+00
       7.39       -88.8917     0.0000E+00
       7.40       -88.7509     0.0000E+00
       7.41       -88.6084     0.0000E+00
       7.42       -88.4642     0.0000E+00
       7.43       -88.3182     0.0000E+00
       7.44       -88.1706     0.0000E+00
       7.45       -88.0212     0.0000E+00
       7.46       -87.8700     0.0000E+00
       7.47       -87.7171     0.0000E+00
       7.48       -87.5624     0.0000E+00
       7.49       -87.4059     0.0000E+00
       7.50       -87.2476     0.0000E+00
       7.51       -87.0875     0.0000E+00
       7.52       -86.9256     0.0000E+00
       7.53       -86.7618     0.0000E+00
       7.54       -86.5961     0.0000E+00
       7.55       -86.4287     0.0000E+00
       7.56       -86.2594     0.0000E+00
       7.57       -86.0881     0.0000E+00
       7.58       -85.9150     0.0000E+00
       7.59       -85.7400     0.0000E+00
       7.60       -85.5631     0.0000E+00
       7.61       -85.3842     0.0000E+00
       7.62       -85.2035     0.0000E+00
       7.63       -85.0208     0.0000E+00
       7.64       -84.8361     0.0000E+00
       7.65       -84.6495     0.0000E+00
       7.66       -84.4608     0.0000E+00
       7.67       -84.2703     0.0000E+00
       7.68       -84.0777     0.0000E+00
       7.69       -83.8830     0.0000E+00
       7.70       -83.6864     0.0000E+00
       7.71       -83.4878     0.0000E+00
       7.72       -83.2872     0.0000E+00
       7.73       -83.0845     0.0000E+00
       7.74       -82.8798     0.0000E+00
       7.75       -82.6730     0.0000E+00
       7.76       -82.4641     0.0000E+00
       7.77       -82.2532     0.0000E+00
       7.78       -82.0401     0.0000E+00
       7.79       -81.8250     0.0000E+00
       7.80       -81.6078     0.0000E+00
       7.81       -81.3885     0.0000E+00
       7.82       -81.1671     0.0000E+00
       7.83       -80.9435     0.0000E+00
       7.84       -80.7179     0.0000E+00
       7.85       -80.4901     0.0000E+00
       7.86       -80.2601     0.0000E+00
       7.87       -80.0280     0.0000E+00
       7.88       -79.7938     0.0000E+00
       7.89       -79.5574     0.0000E+00
       7.90       -79.3188     0.0000E+00
       7.91       -79.0781     0.0000E+00
       7.92       -78.8353     0.0000E+00
       7.93       -78.5903     0.0000E+00
       7.94       -78.3430     0.0000E+00
       7.95       -78.0936     0.0000E+00
       7.96       -77.8419     0.0000E+00
       7.97       -77.5881     0.0000E+00
       7.98       -77.3321     0.0000E+00
       7.99       -77.0738     0.0000E+00
       8.00       -76.8135     0.0000E+00
       8.01       -76.5509     0.0000E+00
       8.02       -76.2860     0.0000E+00
       8.03       -76.0191     0.0000E+00
       8.04       -75.7498     0.0000E+00
       8.05       -75.4784     0.0000E+00
       8.06       -75.2047     0.0000E+00
       8.07       -74.9289     0.0000E+00
       8.08       -74.6508     0.0000E+00
       8.09       -74.3706     0.0000E+00
       8.10       -74.0882     0.0000E+00
       8.11       -73.8034     0.0000E+00
       8.12       -73.5166     0.0000E+00
       8.13       -73.2275     0.0000E+00
       8.14       -72.9361     0.0000E+00
       8.15       -72.6428     0.0000E+00
       8.16       -72.3470     0.0000E+00
       8.17       -72.0491     0.0000E+00
       8.18       -71.7491     0.0000E+00
       8.19       -71.4469     0.0000E+00
       8.20       -71.1425     0.0000E+00
       8.21       -70.8359     0.0000E+00
       8.22       -70.5272     0.0000E+00
       8.23       -70.2163     0.0000E+00
       8.24       -69.9032     0.0000E+00
       8.25       -69.5880     0.0000E+00
       8.26       -69.2706     0.0000E+00
       8.27       -68.9512     0.0000E+00
       8.28       -68.6296     0.0000E+00
       8.29       -68.3059     0.0000E+00
       8.30       -67.9800     0.0000E+00
       8.31       -67.6522     0.0000E+00
       8.32       -67.3221     0.0000E+00
       8.33       -66.9900     0.0000E+00
       8.34       -66.6559     0.0000E+00
       8.35       -66.3197     0.0000E+00
       8.36       -65.9815     0.0000E+00
       8.37       -65.6411     0.0000E+00
       8.38       -65.2989     0.0000E+00
       8.39       -64.9545     0.0000E+00
       8.40       -64.6083     0.0000E+00
       8.41       -64.2601     0.0000E+00
       8.42       -63.9098     0.0000E+00
       8.43       -63.5577     0.0000E+00
       8.44       -63.2035     0.0000E+00
       8.45       -62.8475     0.0000E+00
       8.46       -62.4896     0.0000E+00
       8.47       -62.1298     0.0000E+00
       8.48       -61.7682     0.0000E+00
       8.49       -61.4047     0.0000E+00
       8.50       -61.0393     0.0000E+00
       8.51       -60.6721     0.0000E+00
       8.52       -60.3032     0.0000E+00
       8.53       -59.9325     0.0000E+00
       8.54       -59.5600     0.0000E+00
       8.55       -59.1859     0.0000E+00
       8.56       -58.8100     0.0000E+00
       8.57       -58.4324     0.0000E+00
       8.58       -58.0532     0.0000E+00
       8.59       -57.6723     0.0000E+00
       8.60       -57.2897     0.0000E+00
       8.61       -56.9056     0.0000E+00
       8.62       -56.5199     0.0000E+00
       8.63       -56.1327     0.0000E+00
       8.64       -55.7440     0.0000E+00
       8.65       -55.3537     0.0000E+00
       8.66       -54.9619     0.0000E+00
       8.67       -54.5688     0.0000E+00
       8.68       -54.1742     0.0000E+00
       8.69       -53.7782     0.0000E+00
       8.70       -53.3808     0.0000E+00
       8.71       -52.9821     0.0000E+00
       8.72       -52.5821     0.0000E+00
       8.73       -52.1808     0.0000E+00
       8.74       -51.7782     0.0000E+00
       8.75       -51.3744     0.0000E+00
       8.76       -50.9695     0.0000E+00
       8.77       -50.5633     0.0000E+00
       8.78       -50.1560     0.0000E+00
       8.79       -49.7476     0.0000E+00
       8.80       -49.3381     0.0000E+00
       8.81       -48.9276     0.0000E+00
       8.82       -48.5161     0.0000E+00
       8.83       -48.1036     0.0000E+00
       8.84       -47.6901     0.0000E+00
       8.85       -47.2757     0.0000E+00
       8.86       -46.8605     0.0000E+00
       8.87       -46.4444     0.0000E+00
       8.88       -46.0274     0.0000E+00
       8.89       -45.6097     0.0000E+00
       8.90       -45.1912     0.0000E+00
       8.91       -44.7720     0.0000E+00
       8.92       -44.3522     0.0000E+00
       8.93       -43.9317     0.0000E+00
       8.94       -43.5105     0.0000E+00
       8.95       -43.0888     0.0000E+00
       8.96       -42.6665     0.0000E+00
       8.97       -42.2438     0.0000E+00
       8.98       -41.8205     0.0000E+00
       8.99       -41.3969     0.0000E+00
       9.00       -40.9728     0.0000E+00
       9.01       -40.5483     0.0000E+00
       9.02       -40.1235     0.0000E+00
       9.03       -39.6985     0.0000E+00
       9.04       -39.2731     0.0000E+00
       9.05       -38.8476     0.0000E+00
       9.06       -38.4218     0.0000E+00
       9.07       -37.9959     0.0000E+00
       9.08       -37.5699     0.0000E+00
       9.09       -37.1438     0.0000E+00
       9.10       -36.7177     0.0000E+00
       9.11       -36.2916     0.0000E+00
       9.12       -35.8655     0.0000E+00
       9.13       -35.4393     0.0000E+00
       9.14       -35.0131     0.0000E+00
       9.15       -34.5869     0.0000E+00
       9.16       -34.1607     0.0000E+00
       9.17       -33.7346     0.0000E+00
       9.18       -33.3086     0.0000E+00
       9.19       -32.8827     0.0000E+00
       9.20       -32.4571     0.0000E+00
       9.21       -32.0317     0.0000E+00
       9.22       -31.6065     0.0000E+00
       9.23       -31.1817     0.0000E+00
       9.24       -30.7571     0.0000E+00
       9.25       -30.3330     0.0000E+00
       9.26       -29.9092     0.0000E+00
       9.27       -29.4859     0.0000E+00
       9.28       -29.0630     0.0000E+00
       9.29       -28.6407     0.0000E+00
       9.30       -28.2189     0.0000E+00
       9.31       -27.7977     0.0000E+00
       9.32       -27.3772     0.0000E+00
       9.33       -26.9572     0.0000E+00
       9.34       -26.5380     0.0000E+00
       9.35       -26.1194     0.0000E+00
       9.36       -25.7017     0.0000E+00
       9.37       -25.2847     0.0000E+00
       9.38       -24.8685     0.0000E+00
       9.39       -24.4532     0.0000E+00
       9.40       -24.0388     0.0000E+00
       9.41       -23.6253     0.0000E+00
       9.42       -23.2127     0.0000E+00
       9.43       -22.8012     0.0000E+00
       9.44       -22.3906     0.0000E+00
       9.45       -21.9811     0.0000E+00
       9.46       -21.5727     0.0000E+00
       9.47       -21.1653     0.0000E+00
       9.48       -20.7591     0.0000E+00
       9.49       -20.3541     0.0000E+00
       9.50       -19.9503     0.0000E+00
       9.51       -19.5477     0.0000E+00
       9.52       -19.1464     0.0000E+00
       9.53       -18.7464     0.0000E+00
       9.54       -18.3476     0.0000E+00
       9.55       -17.9502     0.0000E+00
       9.56       -17.5542     0.0000E+00
       9.57       -17.1595     0.0000E+00
       9.58       -16.7663     0.0000E+00
       9.59       -16.3746     0.0000E+00
       9.60       -15.9843     0.0000E+00
       9.61       -15.5955     0.0000E+00
       9.62       -15.2082     0.0000E+00
       9.63       -14.8225     0.0000E+00
       9.64       -14.4383     0.0000E+00
       9.65       -14.0557     0.0000E+00
       9.66       -13.6748     0.0000E+00
       9.67       -13.2955     0.0000E+00
       9.68       -12.9178     0.0000E+00
       9.69       -12.5419     0.0000E+00
       9.70       -12.1676     0.0000E+00
       9.71       -11.7951     0.0000E+00
       9.72       -11.4243     0.0000E+00
       9.73       -11.0553     0.0000E+00
       9.74       -10.6880     0.0000E+00
       9.75       -10.3226     0.0000E+00
       9.76        -9.9590     0.0000E+00
       9.77        -9.5972     0.0000E+00
       9.78        -9.2373     0.0000E+00
       9.79        -8.8792     0.0000E+00
       9.80        -8.5231     0.0000E+00
       9.81        -8.1688     0.0000E+00
       9.82        -7.8165     0.0000E+00
       9.83        -7.4661     0.0000E+00
       9.84        -7.1177     0.0000E+00
       9.85        -6.7712     0.0000E+00
       9.86        -6.4267     0.0000E+00
       9.87        -6.0842     0.0000E+00
       9.88        -5.7437     0.0000E+00
       9.89        -5.4053     0.0000E+00
       9.90        -5.0688     0.0000E+00
       9.91        -4.7344     0.0000E+00
       9.92        -4.4021     0.0000E+00
       9.93        -4.0718     0.0000E+00
       9.94        -3.7436     0.0000E+00
       9.95        -3.4175     0.0000E+00
       9.96        -3.0934     0.0000E+00
       9.97        -2.7715     0.0000E+00
       9.98        -2.4517     0.0000E+00
       9.99        -2.1340     0.0000E+00
      10.00        -1.8184     0.0000E+00
      10.01        -1.5049     0.0000E+00
      10.02        -1.1936     0.0000E+00
      10.03        -0.8845     0.0000E+00
      10.04        -0.5774     0.0000E+00
      10.05        -0.2726     0.0000E+00
      10.06     3.0134E-02     0.0000E+00
      10.07         0.3307     0.0000E+00
      10.08         0.6291     0.0000E+00
      10.09         0.9252     0.0000E+00
      10.10         1.2193     0.0000E+00
      10.11         1.5111     0.0000E+00
      10.12         1.8008     0.0000E+00
      10.13         2.0883     0.0000E+00
      10.14         2.3736     0.0000E+00
      10.15         2.6567     0.0000E+00
      10.16         2.9376     0.0000E+00
      10.17         3.2163     0.0000E+00
      10.18         3.4929     0.0000E+00
      10.19         3.7673     0.0000E+00
      10.20         4.0394     0.0000E+00
      10.21         4.3094     0.0000E+00
      10.22         4.5772     0.0000E+00
      10.23         4.8428     0.0000E+00
      10.24         5.1063     0.0000E+00
      10.25         5.3675     0.0000E+00
      10.26         5.6266     0.0000E+00
      10.27         5.8835     0.0000E+00
      10.28         6.1382     0.0000E+00
      10.29         6.3908     0.0000E+00
      10.30         6.6412     0.0000E+00
      10.31         6.8894     0.0000E+00
      10.32         7.1355     0.0000E+00
      10.33         7.3794     0.0000E+00
      10.34         7.6212     0.0000E+00
      10.35         7.8609     0.0000E+00
      10.36         8.0983     0.0000E+00
      10.37         8.3337     0.0000E+00
      10.38         8.5669     0.0000E+00
      10.39         8.7980     0.0000E+00
      10.40         9.0271     0.0000E+00
      10.41         9.2540     0.0000E+00
      10.42         9.4787     0.0000E+00
      10.43         9.7014     0.0000E+00
      10.44         9.9221     0.0000E+00
      10.45        10.1406     0.0000E+00
      10.46        10.3571     0.0000E+00
      10.47        10.5714     0.0000E+00
      10.48        10.7838     0.0000E+00
      10.49        10.9941     0.0000E+00
      10.50        11.2023     0.0000E+00
      10.51        11.4085     0.0000E+00
      10.52        11.6127     0.0000E+00
      10.53        11.8149     0.0000E+00
      10.54        12.0151     0.0000E+00
      10.55        12.2133     0.0000E+00
      10.56        12.4094     0.0000E+00
      10.57        12.6036     0.0000E+00
      10.58        12.7959     0.0000E+00
      10.59        12.9862     0.0000E+00
      10.60        13.1745     0.0000E+00
      10.61        13.3609     0.0000E+00
      10.62        13.5454     0.0000E+00
      10.63        13.7280     0.0000E+00
      10.64        13.9086     0.0000E+00
      10.65        14.0873     0.0000E+00
      10.66        14.2642     0.0000E+00
      10.67        14.4392     0.0000E+00
      10.68        14.6123     0.0000E+00
      10.69        14.7836     0.0000E+00
      10.70        14.9530     0.0000E+00
      10.71        15.1206     0.0000E+00
      10.72        15.2864     0.0000E+00
      10.73        15.4503     0.0000E+00
      10.74        15.6125     0.0000E+00
      10.75        15.7729     0.0000E+00
      10.76        15.9315     0.0000E+00
      10.77        16.0883     0.0000E+00
      10.78        16.2434     0.0000E+00
      10.79        16.3968     0.0000E+00
      10.80        16.5484     0.0000E+00
      10.81        16.6983     0.0000E+00
      10.82        16.8465     0.0000E+00
      10.83        16.9930     0.0000E+00
      10.84        17.1378     0.0000E+00
      10.85        17.2810     0.0000E+00
      10.86        17.4225     0.0000E+00
      10.87        17.5623     0.0000E+00
      10.88        17.7005     0.0000E+00
      10.89        17.8371     0.0000E+00
      10.90        17.9721     0.0000E+00
      10.91        18.1055     0.0000E+00
      10.92        18.2373     0.0000E+00
      10.93        18.3675     0.0000E+00
      10.94        18.4961     0.0000E+00
      10.95        18.6233     0.0000E+00
      10.96        18.7488     0.0000E+00
      10.97        18.8729     0.0000E+00
      10.98        18.9954     0.0000E+00
      10.99        19.1164     0.0000E+00
      11.00        19.2360     0.0000E+00
      11.01        19.3540     0.0000E+00
      11.02        19.4706     0.0000E+00
      11.03        19.5858     0.0000E+00
      11.04        19.6995     0.0000E+00
      11.05        19.8117     0.0000E+00
      11.06        19.9226     0.0000E+00
      11.07        20.0321     0.0000E+00
      11.08        20.1401     0.0000E+00
      11.09        20.2468     0.0000E+00
      11.10        20.3521     0.0000E+00
      11.11        20.4560     0.0000E+00
      11.12        20.5586     0.0000E+00
      11.13        20.6599     0.0000E+00
      11.14        20.7598     0.0000E+00
      11.15        20.8585     0.0000E+00
      11.16        20.9558     0.0000E+00
      11.17        21.0518     0.0000E+00
      11.18        21.1466     0.0000E+00
      11.19        21.2401     0.0000E+00
      11.20        21.3323     0.0000E+00
      11.21        21.4233     0.0000E+00
      11.22        21.5131     0.0000E+00
      11.23        21.6017     0.0000E+00
      11.24        21.6890     0.0000E+00
      11.25        21.7751     0.0000E+00
      11.26        21.8601     0.0000E+00
      11.27        21.9439     0.0000E+00
      11.28        22.0265     0.0000E+00
      11.29        22.1080     0.0000E+00
      11.30        22.1883     0.0000E+00
      11.31        22.2675     0.0000E+00
      11.32        22.3456     0.0000E+00
      11.33        22.4225     0.0000E+00
      11.34        22.4984     0.0000E+00
      11.35        22.5732     0.0000E+00
      11.36        22.6469     0.0000E+00
      11.37        22.7196     0.0000E+00
      11.38        22.7911     0.0000E+00
      11.39        22.8617     0.0000E+00
      11.40        22.9312     0.0000E+00
      11.41        22.9997     0.0000E+00
      11.42        23.0671     0.0000E+00
      11.43        23.1336     0.0000E+00
      11.44        23.1991     0.0000E+00
      11.45        23.2635     0.0000E+00
      11.46        23.3270     0.0000E+00
      11.47        23.3896     0.0000E+00
      11.48        23.4512     0.0000E+00
      11.49        23.5118     0.0000E+00
      11.50        23.5716     0.0000E+00
      11.51        23.6303     0.0000E+00
      11.52        23.6882     0.0000E+00
      11.53        23.7452     0.0000E+00
      11.54        23.8012     0.0000E+00
      11.55        23.8564     0.0000E+00
      11.56        23.9107     0.0000E+00
      11.57        23.9642     0.0000E+00
      11.58        24.0167     0.0000E+00
      11.59        24.0684     0.0000E+00
      11.60        24.1193     0.0000E+00
      11.61        24.1694     0.0000E+00
      11.62        24.2186     0.0000E+00
      11.63        24.2670     0.0000E+00
      11.64        24.3146     0.0000E+00
      11.65        24.3615     0.0000E+00
      11.66        24.4075     0.0000E+00
      11.67        24.4527     0.0000E+00
      11.68        24.4972     0.0000E+00
      11.69        24.5409     0.0000E+00
      11.70        24.5838     0.0000E+00
      11.71        24.6260     0.0000E+00
      11.72        24.6675     0.0000E+00
      11.73        24.7083     0.0000E+00
      11.74        24.7483     0.0000E+00
      11.75        24.7876     0.0000E+00
      11.76        24.8261     0.0000E+00
      11.77        24.8641     0.0000E+00
      11.78        24.9012     0.0000E+00
      11.79        24.9378     0.0000E+00
      11.80        24.9736     0.0000E+00
      11.81        25.0088     0.0000E+00
      11.82        25.0433     0.0000E+00
      11.83        25.0772     0.0000E+00
      11.84        25.1104     0.0000E+00
      11.85        25.1430     0.0000E+00
      11.86        25.1750     0.0000E+00
      11.87        25.2063     0.0000E+00
      11.88        25.2370     0.0000E+00
      11.89        25.2671     0.0000E+00
      11.90        25.2966     0.0000E+00
      11.91        25.3255     0.0000E+00
      11.92        25.3538     0.0000E+00
      11.93        25.3816     0.0000E+00
      11.94        25.4087     0.0000E+00
      11.95        25.4353     0.0000E+00
      11.96        25.4614     0.0000E+00
      11.97        25.4868     0.0000E+00
      11.98        25.5118     0.0000E+00
      11.99        25.5362     0.0000E+00
      12.00        25.5600     0.0000E+00
      12.01        25.5833     0.0000E+00
      12.02        25.6061     0.0000E+00
      12.03        25.6284     0.0000E+00
      12.04        25.6502     0.0000E+00
      12.05        25.6714     0.0000E+00
      12.06        25.6922     0.0000E+00
      12.07        25.7125     0.0000E+00
      12.08        25.7323     0.0000E+00
      12.09        25.7516     0.0000E+00
      12.10        25.7704     0.0000E+00
      12.11        25.7888     0.0000E+00
      12.12        25.8067     0.0000E+00
      12.13        25.8241     0.0000E+00
      12.14        25.8411     0.0000E+00
      12.15        25.8576     0.0000E+00
      12.16        25.8737     0.0000E+00
      12.17        25.8894     0.0000E+00
      12.18        25.9046     0.0000E+00
      12.19        25.9194     0.0000E+00
      12.20        25.9338     0.0000E+00
      12.21        25.9477     0.0000E+00
      12.22        25.9613     0.0000E+00
      12.23        25.9744     0.0000E+00
      12.24        25.9872     0.0000E+00
      12.25        25.9995     0.0000E+00
      12.26        26.0115     0.0000E+00
      12.27        26.0230     0.0000E+00
      12.28        26.0342     0.0000E+00
      12.29        26.0450     0.0000E+00
      12.30        26.0555     0.0000E+00
      12.31        26.0655     0.0000E+00
      12.32        26.0753     0.0000E+00
      12.33        26.0846     0.0000E+00
      12.34        26.0936     0.0000E+00
      12.35        26.1023     0.0000E+00
      12.36        26.1106     0.0000E+00
      12.37        26.1185     0.0000E+00
      12.38        26.1262     0.0000E+00
      12.39        26.1334     0.0000E+00
      12.40        26.1404     0.0000E+00
      12.41        26.1471     0.0000E+00
      12.42        26.1534     0.0000E+00
      12.43        26.1594     0.0000E+00
      12.44        26.1651     0.0000E+00
      12.45        26.1705     0.0000E+00
      12.46        26.1756     0.0000E+00
      12.47        26.1804     0.0000E+00
      12.48        26.1848     0.0000E+00
      12.49        26.1890     0.0000E+00
      12.50        26.1929     0.0000E+00
      12.51        26.1966     0.0000E+00
      12.52        26.1999     0.0000E+00
      12.53        26.2030     0.0000E+00
      12.54        26.2058     0.0000E+00
      12.55        26.2083     0.0000E+00
      12.56        26.2105     0.0000E+00
      12.57        26.2125     0.0000E+00
      12.58        26.2143     0.0000E+00
      12.59        26.2157     0.0000E+00
      12.60        26.2169     0.0000E+00
      12.61        26.2179     0.0000E+00
      12.62        26.2186     0.0000E+00
      12.63        26.2191     0.0000E+00
      12.64        26.2194     0.0000E+00
      12.65        26.2194     0.0000E+00
      12.66        26.2191     0.0000E+00
      12.67        26.2187     0.0000E+00
      12.68        26.2180     0.0000E+00
      12.69        26.2171     0.0000E+00
      12.70        26.2160     0.0000E+00
      12.71        26.2146     0.0000E+00
      12.72        26.2130     0.0000E+00
      12.73        26.2113     0.0000E+00
      12.74        26.2093     0.0000E+00
      12.75        26.2071     0.0000E+00
      12.76        26.2047     0.0000E+00
      12.77        26.2021     0.0000E+00
      12.78        26.1993     0.0000E+00
      12.79        26.1963     0.0000E+00
      12.80        26.1931     0.0000E+00
      12.81        26.1897     0.0000E+00
      12.82        26.1861     0.0000E+00
      12.83        26.1824     0.0000E+00
      12.84        26.1784     0.0000E+00
      12.85        26.1743     0.0000E+00
      12.86        26.1700     0.0000E+00
      12.87        26.1655     0.0000E+00
      12.88        26.1609     0.0000E+00
      12.89        26.1561     0.0000E+00
      12.90        26.1511     0.0000E+00
      12.91        26.1459     0.0000E+00
      12.92        26.1406     0.0000E+00
      12.93        26.1351     0.0000E+00
      12.94        26.1295     0.0000E+00
      12.95        26.1237     0.0000E+00
      12.96        26.1177     0.0000E+00
      12.97        26.1117     0.0000E+00
      12.98        26.1054     0.0000E+00
      12.99        26.0990     0.0000E+00
      13.00        26.0925     0.0000E+00
      13.01        26.0858     0.0000E+00
      13.02        26.0789     0.0000E+00
      13.03        26.0719     0.0000E+00
      13.04        26.0648     0.0000E+00
      13.05        26.0576     0.0000E+00
      13.06        26.0502     0.0000E+00
      13.07        26.0427     0.0000E+00
      13.08        26.0350     0.0000E+00
      13.09        26.0273     0.0000E+00
      13.10        26.0194     0.0000E+00
      13.11        26.0113     0.0000E+00
      13.12        26.0032     0.0000E+00
      13.13        25.9949     0.0000E+00
      13.14        25.9865     0.0000E+00
      13.15        25.9780     0.0000E+00
      13.16        25.9694     0.0000E+00
      13.17        25.9607     0.0000E+00
      13.18        25.9518     0.0000E+00
      13.19        25.9429     0.0000E+00
      13.20        25.9338     0.0000E+00
      13.21        25.9246     0.0000E+00
      13.22        25.9153     0.0000E+00
      13.23        25.9059     0.0000E+00
      13.24        25.8964     0.0000E+00
      13.25        25.8869     0.0000E+00
      13.26        25.8772     0.0000E+00
      13.27        25.8674     0.0000E+00
      13.28        25.8575     0.0000E+00
      13.29        25.8475     0.0000E+00
      13.30        25.8374     0.0000E+00
      13.31        25.8273     0.0000E+00
      13.32        25.8170     0.0000E+00
      13.33        25.8067     0.0000E+00
      13.34        25.7962     0.0000E+00
      13.35        25.7857     0.0000E+00
      13.36        25.7751     0.0000E+00
      13.37        25.7644     0.0000E+00
      13.38        25.7536     0.0000E+00
      13.39        25.7427     0.0000E+00
      13.40        25.7318     0.0000E+00
      13.41        25.7208     0.0000E+00
      13.42        25.7097     0.0000E+00
      13.43        25.6985     0.0000E+00
      13.44        25.6873     0.0000E+00
      13.45        25.6760     0.0000E+00
      13.46        25.6646     0.0000E+00
      13.47        25.6531     0.0000E+00
      13.48        25.6416     0.0000E+00
      13.49        25.6300     0.0000E+00
      13.50        25.6183     0.0000E+00
      13.51        25.6066     0.0000E+00
      13.52        25.5948     0.0000E+00
      13.53        25.5829     0.0000E+00
      13.54        25.5710     0.0000E+00
      13.55        25.5590     0.0000E+00
      13.56        25.5469     0.0000E+00
      13.57        25.5348     0.0000E+00
      13.58        25.5226     0.0000E+00
      13.59        25.5104     0.0000E+00
      13.60        25.4981     0.0000E+00
      13.61        25.4857     0.0000E+00
      13.62        25.4733     0.0000E+00
      13.63        25.4609     0.0000E+00
      13.64        25.4484     0.0000E+00
      13.65        25.4358     0.0000E+00
      13.66        25.4232     0.0000E+00
      13.67        25.4105     0.0000E+00
      13.68        25.3978     0.0000E+00
      13.69        25.3850     0.0000E+00
      13.70        25.3722     0.0000E+00
      13.71        25.3593     0.0000E+00
      13.72        25.3464     0.0000E+00
      13.73        25.3335     0.0000E+00
      13.74        25.3205     0.0000E+00
      13.75        25.3074     0.0000E+00
      13.76        25.2943     0.0000E+00
      13.77        25.2812     0.0000E+00
      13.78        25.2680     0.0000E+00
      13.79        25.2548     0.0000E+00
      13.80        25.2415     0.0000E+00
      13.81        25.2282     0.0000E+00
      13.82        25.2149     0.0000E+00
      13.83        25.2016     0.0000E+00
      13.84        25.1881     0.0000E+00
      13.85        25.1747     0.0000E+00
      13.86        25.1612     0.0000E+00
      13.87        25.1477     0.0000E+00
      13.88        25.1342     0.0000E+00
      13.89        25.1206     0.0000E+00
      13.90        25.1070     0.0000E+00
      13.91        25.0933     0.0000E+00
      13.92        25.0797     0.0000E+00
      13.93        25.0659     0.0000E+00
      13.94        25.0522     0.0000E+00
      13.95        25.0384     0.0000E+00
      13.96        25.0246     0.0000E+00
      13.97        25.0108     0.0000E+00
      13.98        24.9970     0.0000E+00
      13.99        24.9831     0.0000E+00
      14.00        24.9692     0.0000E+00
      14.01        24.9552     0.0000E+00
      14.02        24.9413     0.0000E+00
      14.03        24.9273     0.0000E+00
      14.04        24.9133     0.0000E+00
      14.05        24.8993     0.0000E+00
      14.06        24.8852     0.0000E+00
      14.07        24.8711     0.0000E+00
      14.08        24.8571     0.0000E+00
      14.09        24.8429     0.0000E+00
      14.10        24.8288     0.0000E+00
      14.11        24.8146     0.0000E+00
      14.12        24.8004     0.0000E+00
      14.13        24.7863     0.0000E+00
      14.14        24.7720     0.0000E+00
      14.15        24.7578     0.0000E+00
      14.16        24.7436     0.0000E+00
      14.17        24.7293     0.0000E+00
      14.18        24.7150     0.0000E+00
      14.19        24.7007     0.0000E+00
      14.20        24.6864     0.0000E+00
      14.21        24.6720     0.0000E+00
      14.22        24.6577     0.0000E+00
      14.23        24.6433     0.0000E+00
      14.24        24.6289     0.0000E+00
      14.25        24.6145     0.0000E+00
      14.26        24.6001     0.0000E+00
      14.27        24.5857     0.0000E+00
      14.28        24.5713     0.0000E+00
      14.29        24.5568     0.0000E+00
      14.30        24.5424     0.0000E+00
      14.31        24.5279     0.0000E+00
      14.32        24.5134     0.0000E+00
      14.33        24.4989     0.0000E+00
      14.34        24.4844     0.0000E+00
      14.35        24.4699     0.0000E+00
      14.36        24.4554     0.0000E+00
      14.37        24.4408     0.0000E+00
      14.38        24.4263     0.0000E+00
      14.39        24.4118     0.0000E+00
      14.40        24.3972     0.0000E+00
      14.41        24.3827     0.0000E+00
      14.42        24.3681     0.0000E+00
      14.43        24.3535     0.0000E+00
      14.44        24.3389     0.0000E+00
      14.45        24.3243     0.0000E+00
      14.46        24.3097     0.0000E+00
      14.47        24.2951     0.0000E+00
      14.48        24.2805     0.0000E+00
      14.49        24.2659     0.0000E+00
      14.50        24.2513     0.0000E+00
      14.51        24.2367     0.0000E+00
      14.52        24.2220     0.0000E+00
      14.53        24.2074     0.0000E+00
      14.54        24.1928     0.0000E+00
      14.55        24.1781     0.0000E+00
      14.56        24.1635     0.0000E+00
      14.57        24.1489     0.0000E+00
      14.58        24.1342     0.0000E+00
      14.59        24.1196     0.0000E+00
      14.60        24.1049     0.0000E+00
      14.61        24.0903     0.0000E+00
      14.62        24.0756     0.0000E+00
      14.63        24.0610     0.0000E+00
      14.64        24.0463     0.0000E+00
      14.65        24.0316     0.0000E+00
      14.66        24.0170     0.0000E+00
      14.67        24.0023     0.0000E+00
      14.68        23.9877     0.0000E+00
      14.69        23.9730     0.0000E+00
      14.70        23.9584     0.0000E+00
      14.71        23.9437     0.0000E+00
      14.72        23.9290     0.0000E+00
      14.73        23.9144     0.0000E+00
      14.74        23.8997     0.0000E+00
      14.75        23.8851     0.0000E+00
      14.76        23.8704     0.0000E+00
      14.77        23.8558     0.0000E+00
      14.78        23.8411     0.0000E+00
      14.79        23.8265     0.0000E+00
      14.80        23.8119     0.0000E+00
      14.81        23.7972     0.0000E+00
      14.82        23.7826     0.0000E+00
      14.83        23.7679     0.0000E+00
      14.84        23.7533     0.0000E+00
      14.85        23.7387     0.0000E+00
      14.86        23.7241     0.0000E+00
      14.87        23.7095     0.0000E+00
      14.88        23.6948     0.0000E+00
      14.89        23.6802     0.0000E+00
      14.90        23.6656     0.0000E+00
      14.91        23.6510     0.0000E+00
      14.92        23.6364     0.0000E+00
      14.93        23.6218     0.0000E+00
      14.94        23.6073     0.0000E+00
      14.95        23.5927     0.0000E+00
      14.96        23.5781     0.0000E+00
      14.97        23.5635     0.0000E+00
      14.98        23.5490     0.0000E+00
      14.99        23.5344     0.0000E+00
      15.00        23.5199     0.0000E+00
      15.01        23.5053     0.0000E+00
      15.02        23.4908     0.0000E+00
      15.03        23.4762     0.0000E+00
      15.04        23.4617     0.0000E+00
      15.05        23.4472     0.0000E+00
      15.06        23.4327     0.0000E+00
      15.07        23.4182     0.0000E+00
      15.08        23.4037     0.0000E+00
      15.09        23.3892     0.0000E+00
      15.10        23.3747     0.0000E+00
      15.11        23.3602     0.0000E+00
      15.12        23.3457     0.0000E+00
      15.13        23.3313     0.0000E+00
      15.14        23.3168     0.0000E+00
      15.15        23.3024     0.0000E+00
      15.16        23.2879     0.0000E+00
      15.17        23.2735     0.0000E+00
      15.18        23.2591     0.0000E+00
      15.19        23.2447     0.0000E+00
      15.20        23.2303     0.0000E+00
      15.21        23.2159     0.0000E+00
      15.22        23.2015     0.0000E+00
      15.23        23.1871     0.0000E+00
      15.24        23.1727     0.0000E+00
      15.25        23.1584     0.0000E+00
      15.26        23.1440     0.0000E+00
      15.27        23.1297     0.0000E+00
      15.28        23.1153     0.0000E+00
      15.29        23.1010     0.0000E+00
      15.30        23.0867     0.0000E+00
      15.31        23.0724     0.0000E+00
      15.32        23.0581     0.0000E+00
      15.33        23.0438     0.0000E+00
      15.34        23.0295     0.0000E+00
      15.35        23.0152     0.0000E+00
      15.36        23.0010     0.0000E+00
      15.37        22.9867     0.0000E+00
      15.38        22.9725     0.0000E+00
      15.39        22.9583     0.0000E+00
      15.40        22.9441     0.0000E+00
      15.41        22.9298     0.0000E+00
      15.42        22.9157     0.0000E+00
      15.43        22.9015     0.0000E+00
      15.44        22.8873     0.0000E+00
      15.45        22.8731     0.0000E+00
      15.46        22.8590     0.0000E+00
      15.47        22.8448     0.0000E+00
      15.48        22.8307     0.0000E+00
      15.49        22.8166     0.0000E+00
      15.50        22.8025     0.0000E+00
      15.51        22.7884     0.0000E+00
      15.52        22.7743     0.0000E+00
      15.53        22.7602     0.0000E+00
      15.54        22.7461     0.0000E+00
      15.55        22.7321     0.0000E+00
      15.56        22.7180     0.0000E+00
      15.57        22.7040     0.0000E+00
      15.58        22.6900     0.0000E+00
      15.59        22.6760     0.0000E+00
      15.60        22.6620     0.0000E+00
      15.61        22.6480     0.0000E+00
      15.62        22.6340     0.0000E+00
      15.63        22.6201     0.0000E+00
      15.64        22.6061     0.0000E+00
      15.65        22.5922     0.0000E+00
      15.66        22.5782     0.0000E+00
      15.67        22.5643     0.0000E+00
      15.68        22.5504     0.0000E+00
      15.69        22.5365     0.0000E+00
      15.70        22.5227     0.0000E+00
      15.71        22.5088     0.0000E+00
      15.72        22.4949     0.0000E+00
      15.73        22.4811     0.0000E+00
      15.74        22.4673     0.0000E+00
      15.75        22.4534     0.0000E+00
      15.76        22.4396     0.0000E+00
      15.77        22.4258     0.0000E+00
      15.78        22.4121     0.0000E+00
      15.79        22.3983     0.0000E+00
      15.80        22.3845     0.0000E+00
      15.81        22.3708     0.0000E+00
      15.82        22.3571     0.0000E+00
      15.83        22.3433     0.0000E+00
      15.84        22.3296     0.0000E+00
      15.85        22.3159     0.0000E+00
      15.86        22.3023     0.0000E+00
      15.87        22.2886     0.0000E+00
      15.88        22.2749     0.0000E+00
      15.89        22.2613     0.0000E+00
      15.90        22.2477     0.0000E+00
      15.91        22.2340     0.0000E+00
      15.92        22.2204     0.0000E+00
      15.93        22.2068     0.0000E+00
      15.94        22.1933     0.0000E+00
      15.95        22.1797     0.0000E+00
      15.96        22.1662     0.0000E+00
      15.97        22.1526     0.0000E+00
      15.98        22.1391     0.0000E+00
      15.99        22.1256     0.0000E+00
      16.00        22.1121     0.0000E+00
      16.01        22.0986     0.0000E+00
      16.02        22.0851     0.0000E+00
      16.03        22.0716     0.0000E+00
      16.04        22.0582     0.0000E+00
      16.05        22.0448     0.0000E+00
      16.06        22.0313     0.0000E+00
      16.07        22.0179     0.0000E+00
      16.08        22.0045     0.0000E+00
      16.09        21.9911     0.0000E+00
      16.10        21.9778     0.0000E+00
      16.11        21.9644     0.0000E+00
      16.12        21.9511     0.0000E+00
      16.13        21.9377     0.0000E+00
      16.14        21.9244     0.0000E+00
      16.15        21.9111     0.0000E+00
      16.16        21.8978     0.0000E+00
      16.17        21.8846     0.0000E+00
      16.18        21.8713     0.0000E+00
      16.19        21.8580     0.0000E+00
      16.20        21.8448     0.0000E+00
      16.21        21.8316     0.0000E+00
      16.22        21.8184     0.0000E+00
      16.23        21.8052     0.0000E+00
      16.24        21.7920     0.0000E+00
      16.25        21.7788     0.0000E+00
      16.26        21.7657     0.0000E+00
      16.27        21.7525     0.0000E+00
      16.28        21.7394     0.0000E+00
      16.29        21.7263     0.0000E+00
      16.30        21.7132     0.0000E+00
      16.31        21.7001     0.0000E+00
      16.32        21.6870     0.0000E+00
      16.33        21.6739     0.0000E+00
      16.34        21.6609     0.0000E+00
      16.35        21.6478     0.0000E+00
      16.36        21.6348     0.0000E+00
      16.37        21.6218     0.0000E+00
      16.38        21.6088     0.0000E+00
      16.39        21.5958     0.0000E+00
      16.40        21.5829     0.0000E+00
      16.41        21.5699     0.0000E+00
      16.42        21.5570     0.0000E+00
      16.43        21.5440     0.0000E+00
      16.44        21.5311     0.0000E+00
      16.45        21.5182     0.0000E+00
      16.46        21.5053     0.0000E+00
      16.47        21.4925     0.0000E+00
      16.48        21.4796     0.0000E+00
      16.49        21.4667     0.0000E+00
      16.50        21.4539     0.0000E+00
      16.51        21.4411     0.0000E+00
      16.52        21.4283     0.0000E+00
      16.53        21.4155     0.0000E+00
      16.54        21.4027     0.0000E+00
      16.55        21.3899     0.0000E+00
      16.56        21.3772     0.0000E+00
      16.57        21.3644     0.0000E+00
      16.58        21.3517     0.0000E+00
      16.59        21.3390     0.0000E+00
      16.60        21.3263     0.0000E+00
      16.61        21.3136     0.0000E+00
      16.62        21.3009     0.0000E+00
      16.63        21.2883     0.0000E+00
      16.64        21.2756     0.0000E+00
      16.65        21.2630     0.0000E+00
      16.66        21.2504     0.0000E+00
      16.67        21.2378     0.0000E+00
      16.68        21.2252     0.0000E+00
      16.69        21.2126     0.0000E+00
      16.70        21.2000     0.0000E+00
      16.71        21.1875     0.0000E+00
      16.72        21.1750     0.0000E+00
      16.73        21.1624     0.0000E+00
      16.74        21.1499     0.0000E+00
      16.75        21.1374     0.0000E+00
      16.76        21.1249     0.0000E+00
      16.77        21.1125     0.0000E+00
      16.78        21.1000     0.0000E+00
      16.79        21.0876     0.0000E+00
      16.80        21.0751     0.0000E+00
      16.81        21.0627     0.0000E+00
      16.82        21.0503     0.0000E+00
      16.83        21.0379     0.0000E+00
      16.84        21.0255     0.0000E+00
      16.85        21.0132     0.0000E+00
      16.86        21.0008     0.0000E+00
      16.87        20.9885     0.0000E+00
      16.88        20.9762     0.0000E+00
      16.89        20.9638     0.0000E+00
      16.90        20.9515     0.0000E+00
      16.91        20.9393     0.0000E+00
      16.92        20.9270     0.0000E+00
      16.93        20.9147     0.0000E+00
      16.94        20.9025     0.0000E+00
      16.95        20.8903     0.0000E+00
      16.96        20.8780     0.0000E+00
      16.97        20.8658     0.0000E+00
      16.98        20.8536     0.0000E+00
      16.99        20.8415     0.0000E+00
      17.00        20.8293     0.0000E+00
      17.01        20.8171     0.0000E+00
      17.02        20.8050     0.0000E+00
      17.03        20.7929     0.0000E+00
      17.04        20.7808     0.0000E+00
      17.05        20.7687     0.0000E+00
      17.06        20.7566     0.0000E+00
      17.07        20.7445     0.0000E+00
      17.08        20.7324     0.0000E+00
      17.09        20.7204     0.0000E+00
      17.10        20.7084     0.0000E+00
      17.11        20.6963     0.0000E+00
      17.12        20.6843     0.0000E+00
      17.13        20.6723     0.0000E+00
      17.14        20.6604     0.0000E+00
      17.15        20.6484     0.0000E+00
      17.16        20.6364     0.0000E+00
      17.17        20.6245     0.0000E+00
      17.18        20.6126     0.0000E+00
      17.19        20.6006     0.0000E+00
      17.20        20.5887     0.0000E+00
      17.21        20.5768     0.0000E+00
      17.22        20.5650     0.0000E+00
      17.23        20.5531     0.0000E+00
      17.24        20.5413     0.0000E+00
      17.25        20.5294     0.0000E+00
      17.26        20.5176     0.0000E+00
      17.27        20.5058     0.0000E+00
      17.28        20.4940     0.0000E+00
      17.29        20.4822     0.0000E+00
      17.30        20.4704     0.0000E+00
      17.31        20.4586     0.0000E+00
      17.32        20.4469     0.0000E+00
      17.33        20.4352     0.0000E+00
      17.34        20.4234     0.0000E+00
      17.35        20.4117     0.0000E+00
      17.36        20.4000     0.0000E+00
      17.37        20.3883     0.0000E+00
      17.38        20.3767     0.0000E+00
      17.39        20.3650     0.0000E+00
      17.40        20.3534     0.0000E+00
      17.41        20.3417     0.0000E+00
      17.42        20.3301     0.0000E+00
      17.43        20.3185     0.0000E+00
      17.44        20.3069     0.0000E+00
      17.45        20.2953     0.0000E+00
      17.46        20.2838     0.0000E+00
      17.47        20.2722     0.0000E+00
      17.48        20.2606     0.0000E+00
      17.49        20.2491     0.0000E+00
      17.50        20.2376     0.0000E+00
      17.51        20.2261     0.0000E+00
      17.52        20.2146     0.0000E+00
      17.53        20.2031     0.0000E+00
      17.54        20.1916     0.0000E+00
      17.55        20.1802     0.0000E+00
      17.56        20.1687     0.0000E+00
      17.57        20.1573     0.0000E+00
      17.58        20.1459     0.0000E+00
      17.59        20.1345     0.0000E+00
      17.60        20.1231     0.0000E+00
      17.61        20.1117     0.0000E+00
      17.62        20.1003     0.0000E+00
      17.63        20.0890     0.0000E+00
      17.64        20.0776     0.0000E+00
      17.65        20.0663     0.0000E+00
      17.66        20.0550     0.0000E+00
      17.67        20.0437     0.0000E+00
      17.68        20.0324     0.0000E+00
      17.69        20.0211     0.0000E+00
      17.70        20.0098     0.0000E+00
      17.71        19.9985     0.0000E+00
      17.72        19.9873     0.0000E+00
      17.73        19.9761     0.0000E+00
      17.74        19.9648     0.0000E+00
      17.75        19.9536     0.0000E+00
      17.76        19.9424     0.0000E+00
      17.77        19.9312     0.0000E+00
      17.78        19.9201     0.0000E+00
      17.79        19.9089     0.0000E+00
      17.80        19.8978     0.0000E+00
      17.81        19.8866     0.0000E+00
      17.82        19.8755     0.0000E+00
      17.83        19.8644     0.0000E+00
      17.84        19.8533     0.0000E+00
      17.85        19.8422     0.0000E+00
      17.86        19.8311     0.0000E+00
      17.87        19.8200     0.0000E+00
      17.88        19.8090     0.0000E+00
      17.89        19.7979     0.0000E+00
      17.90        19.7869     0.0000E+00
      17.91        19.7759     0.0000E+00
      17.92        19.7649     0.0000E+00
      17.93        19.7539     0.0000E+00
      17.94        19.7429     0.0000E+00
      17.95        19.7319     0.0000E+00
      17.96        19.7210     0.0000E+00
      17.97        19.7100     0.0000E+00
      17.98        19.6991     0.0000E+00
      17.99        19.6882     0.0000E+00
      18.00        19.6773     0.0000E+00
      18.01        19.6664     0.0000E+00
      18.02        19.6555     0.0000E+00
      18.03        19.6446     0.0000E+00
      18.04        19.6337     0.0000E+00
      18.05        19.6229     0.0000E+00
      18.06        19.6121     0.0000E+00
      18.07        19.6012     0.0000E+00
      18.08        19.5904     0.0000E+00
      18.09        19.5796     0.0000E+00
      18.10        19.5688     0.0000E+00
      18.11        19.5580     0.0000E+00
      18.12        19.5473     0.0000E+00
      18.13        19.5365     0.0000E+00
      18.14        19.5258     0.0000E+00
      18.15        19.5150     0.0000E+00
      18.16        19.5043     0.0000E+00
      18.17        19.4936     0.0000E+00
      18.18        19.4829     0.0000E+00
      18.19        19.4722     0.0000E+00
      18.20        19.4615     0.0000E+00
      18.21        19.4508     0.0000E+00
      18.22        19.4402     0.0000E+00
      18.23        19.4295     0.0000E+00
      18.24        19.4189     0.0000E+00
      18.25        19.4083     0.0000E+00
      18.26        19.3977     0.0000E+00
      18.27        19.3871     0.0000E+00
      18.28        19.3765     0.0000E+00
      18.29        19.3659     0.0000E+00
      18.30        19.3554     0.0000E+00
      18.31        19.3448     0.0000E+00
      18.32        19.3343     0.0000E+00
      18.33        19.3237     0.0000E+00
      18.34        19.3132     0.0000E+00
      18.35        19.3027     0.0000E+00
      18.36        19.2922     0.0000E+00
      18.37        19.2817     0.0000E+00
      18.38        19.2713     0.0000E+00
      18.39        19.2608     0.0000E+00
      18.40        19.2503     0.0000E+00
      18.41        19.2399     0.0000E+00
      18.42        19.2295     0.0000E+00
      18.43        19.2191     0.0000E+00
      18.44        19.2087     0.0000E+00
      18.45        19.1983     0.0000E+00
      18.46        19.1879     0.0000E+00
      18.47        19.1775     0.0000E+00
      18.48        19.1671     0.0000E+00
      18.49        19.1568     0.0000E+00
      18.50        19.1464     0.0000E+00
      18.51        19.1361     0.0000E+00
      18.52        19.1258     0.0000E+00
      18.53        19.1155     0.0000E+00
      18.54        19.1052     0.0000E+00
      18.55        19.0949     0.0000E+00
      18.56        19.0846     0.0000E+00
      18.57        19.0744     0.0000E+00
      18.58        19.0641     0.0000E+00
      18.59        19.0539     0.0000E+00
      18.60        19.0436     0.0000E+00
      18.61        19.0334     0.0000E+00
      18.62        19.0232     0.0000E+00
      18.63        19.0130     0.0000E+00
      18.64        19.0028     0.0000E+00
      18.65        18.9926     0.0000E+00
      18.66        18.9825     0.0000E+00
      18.67        18.9723     0.0000E+00
      18.68        18.9622     0.0000E+00
      18.69        18.9520     0.0000E+00
      18.70        18.9419     0.0000E+00
      18.71        18.9318     0.0000E+00
      18.72        18.9217     0.0000E+00
      18.73        18.9116     0.0000E+00
      18.74        18.9015     0.0000E+00
      18.75        18.8915     0.0000E+00
      18.76        18.8814     0.0000E+00
      18.77        18.8714     0.0000E+00
      18.78        18.8613     0.0000E+00
      18.79        18.8513     0.0000E+00
      18.80        18.8413     0.0000E+00
      18.81        18.8313     0.0000E+00
      18.82        18.8213     0.0000E+00
      18.83        18.8113     0.0000E+00
      18.84        18.8013     0.0000E+00
      18.85        18.7913     0.0000E+00
      18.86        18.7814     0.0000E+00
      18.87        18.7714     0.0000E+00
      18.88        18.7615     0.0000E+00
      18.89        18.7516     0.0000E+00
      18.90        18.7417     0.0000E+00
      18.91        18.7318     0.0000E+00
      18.92        18.7219     0.0000E+00
      18.93        18.7120     0.0000E+00
      18.94        18.7021     0.0000E+00
      18.95        18.6923     0.0000E+00
      18.96        18.6824     0.0000E+00
      18.97        18.6726     0.0000E+00
      18.98        18.6627     0.0000E+00
      18.99        18.6529     0.0000E+00
      19.00        18.6431     0.0000E+00
      19.01        18.6333     0.0000E+00
      19.02        18.6235     0.0000E+00
      19.03        18.6137     0.0000E+00
      19.04        18.6040     0.0000E+00
      19.05        18.5942     0.0000E+00
      19.06        18.5845     0.0000E+00
      19.07        18.5747     0.0000E+00
      19.08        18.5650     0.0000E+00
      19.09        18.5553     0.0000E+00
      19.10        18.5456     0.0000E+00
      19.11        18.5359     0.0000E+00
      19.12        18.5262     0.0000E+00
      19.13        18.5165     0.0000E+00
      19.14        18.5068     0.0000E+00
      19.15        18.4972     0.0000E+00
      19.16        18.4875     0.0000E+00
      19.17        18.4779     0.0000E+00
      19.18        18.4683     0.0000E+00
      19.19        18.4587     0.0000E+00
      19.20        18.4491     0.0000E+00
      19.21        18.4395     0.0000E+00
      19.22        18.4299     0.0000E+00
      19.23        18.4203     0.0000E+00
      19.24        18.4107     0.0000E+00
      19.25        18.4012     0.0000E+00
      19.26        18.3916     0.0000E+00
      19.27        18.3821     0.0000E+00
      19.28        18.3725     0.0000E+00
      19.29        18.3630     0.0000E+00
      19.30        18.3535     0.0000E+00
      19.31        18.3440     0.0000E+00
      19.32        18.3345     0.0000E+00
      19.33        18.3250     0.0000E+00
      19.34        18.3156     0.0000E+00
      19.35        18.3061     0.0000E+00
      19.36        18.2967     0.0000E+00
      19.37        18.2872     0.0000E+00
      19.38        18.2778     0.0000E+00
      19.39        18.2684     0.0000E+00
      19.40        18.2590     0.0000E+00
      19.41        18.2496     0.0000E+00
      19.42        18.2402     0.0000E+00
      19.43        18.2308     0.0000E+00
      19.44        18.2214     0.0000E+00
      19.45        18.2120     0.0000E+00
      19.46        18.2027     0.0000E+00
      19.47        18.1933     0.0000E+00
      19.48        18.1840     0.0000E+00
      19.49        18.1747     0.0000E+00
      19.50        18.1654     0.0000E+00
      19.51        18.1561     0.0000E+00
      19.52        18.1468     0.0000E+00
      19.53        18.1375     0.0000E+00
      19.54        18.1282     0.0000E+00
      19.55        18.1189     0.0000E+00
      19.56        18.1097     0.0000E+00
      19.57        18.1004     0.0000E+00
      19.58        18.0912     0.0000E+00
      19.59        18.0819     0.0000E+00
      19.60        18.0727     0.0000E+00
      19.61        18.0635     0.0000E+00
      19.62        18.0543     0.0000E+00
      19.63        18.0451     0.0000E+00
      19.64        18.0359     0.0000E+00
      19.65        18.0268     0.0000E+00
      19.66        18.0176     0.0000E+00
      19.67        18.0084     0.0000E+00
      19.68        17.9993     0.0000E+00
      19.69        17.9902     0.0000E+00
      19.70        17.9810     0.0000E+00
      19.71        17.9719     0.0000E+00
      19.72        17.9628     0.0000E+00
      19.73        17.9537     0.0000E+00
      19.74        17.9446     0.0000E+00
      19.75        17.9355     0.0000E+00
      19.76        17.9264     0.0000E+00
      19.77        17.9174     0.0000E+00
      19.78        17.9083     0.0000E+00
      19.79        17.8993     0.0000E+00
      19.80        17.8902     0.0000E+00
      19.81        17.8812     0.0000E+00
      19.82        17.8722     0.0000E+00
      19.83        17.8632     0.0000E+00
      19.84        17.8542     0.0000E+00
      19.85        17.8452     0.0000E+00
      19.86        17.8362     0.0000E+00
      19.87        17.8272     0.0000E+00
      19.88        17.8183     0.0000E+00
      19.89        17.8093     0.0000E+00
      19.90        17.8004     0.0000E+00
      19.91        17.7914     0.0000E+00
      19.92        17.7825     0.0000E+00
      19.93        17.7736     0.0000E+00
      19.94        17.7647     0.0000E+00
      19.95        17.7558     0.0000E+00
      19.96        17.7469     0.0000E+00
      19.97        17.7380     0.0000E+00
      19.98        17.7291     0.0000E+00
      19.99        17.7202     0.0000E+00
      20.00        17.7114     0.0000E+00
      20.01        17.7025     0.0000E+00
      20.02        17.6937     0.0000E+00
      20.03        17.6849     0.0000E+00
      20.04        17.6760     0.0000E+00
      20.05        17.6672     0.0000E+00
      20.06        17.6584     0.0000E+00
      20.07        17.6496     0.0000E+00
      20.08        17.6408     0.0000E+00
      20.09        17.6321     0.0000E+00
      20.10        17.6233     0.0000E+00
      20.11        17.6145     0.0000E+00
      20.12        17.6058     0.0000E+00
      20.13        17.5970     0.0000E+00
      20.14        17.5883     0.0000E+00
      20.15        17.5796     0.0000E+00
      20.16        17.5709     0.0000E+00
      20.17        17.5621     0.0000E+00
      20.18        17.5534     0.0000E+00
      20.19        17.5447     0.0000E+00
      20.20        17.5361     0.0000E+00
      20.21        17.5274     0.0000E+00
      20.22        17.5187     0.0000E+00
      20.23        17.5101     0.0000E+00
      20.24        17.5014     0.0000E+00
      20.25        17.4928     0.0000E+00
      20.26        17.4841     0.0000E+00
      20.27        17.4755     0.0000E+00
      20.28        17.4669     0.0000E+00
      20.29        17.4583     0.0000E+00
      20.30        17.4497     0.0000E+00
      20.31        17.4411     0.0000E+00
      20.32        17.4325     0.0000E+00
      20.33        17.4240     0.0000E+00
      20.34        17.4154     0.0000E+00
      20.35        17.4068     0.0000E+00
      20.36        17.3983     0.0000E+00
      20.37        17.3897     0.0000E+00
      20.38        17.3812     0.0000E+00
      20.39        17.3727     0.0000E+00
      20.40        17.3642     0.0000E+00
      20.41        17.3557     0.0000E+00
      20.42        17.3472     0.0000E+00
      20.43        17.3387     0.0000E+00
      20.44        17.3302     0.0000E+00
      20.45        17.3217     0.0000E+00
      20.46        17.3133     0.0000E+00
      20.47        17.3048     0.0000E+00
      20.48        17.2964     0.0000E+00
      20.49        17.2879     0.0000E+00
      20.50        17.2795     0.0000E+00
      20.51        17.2711     0.0000E+00
      20.52        17.2626     0.0000E+00
      20.53        17.2542     0.0000E+00
      20.54        17.2458     0.0000E+00
      20.55        17.2374     0.0000E+00
      20.56        17.2291     0.0000E+00
      20.57        17.2207     0.0000E+00
      20.58        17.2123     0.0000E+00
      20.59        17.2040     0.0000E+00
      20.60        17.1956     0.0000E+00
      20.61        17.1873     0.0000E+00
      20.62        17.1789     0.0000E+00
      20.63        17.1706     0.0000E+00
      20.64        17.1623     0.0000E+00
      20.65        17.1540     0.0000E+00
      20.66        17.1457     0.0000E+00
      20.67        17.1374     0.0000E+00
      20.68        17.1291     0.0000E+00
      20.69        17.1208     0.0000E+00
      20.70        17.1126     0.0000E+00
      20.71        17.1043     0.0000E+00
      20.72        17.0960     0.0000E+00
      20.73        17.0878     0.0000E+00
      20.74        17.0796     0.0000E+00
      20.75        17.0713     0.0000E+00
      20.76        17.0631     0.0000E+00
      20.77        17.0549     0.0000E+00
      20.78        17.0467     0.0000E+00
      20.79        17.0385     0.0000E+00
      20.80        17.0303     0.0000E+00
      20.81        17.0221     0.0000E+00
      20.82        17.0139     0.0000E+00
      20.83        17.0058     0.0000E+00
      20.84        16.9976     0.0000E+00
      20.85        16.9895     0.0000E+00
      20.86        16.9813     0.0000E+00
      20.87        16.9732     0.0000E+00
      20.88        16.9650     0.0000E+00
      20.89        16.9569     0.0000E+00
      20.90        16.9488     0.0000E+00
      20.91        16.9407     0.0000E+00
      20.92        16.9326     0.0000E+00
      20.93        16.9245     0.0000E+00
      20.94        16.9164     0.0000E+00
      20.95        16.9084     0.0000E+00
      20.96        16.9003     0.0000E+00
      20.97        16.8922     0.0000E+00
      20.98        16.8842     0.0000E+00
      20.99        16.8761     0.0000E+00
      21.00        16.8681     0.0000E+00
      21.01        16.8601     0.0000E+00
      21.02        16.8521     0.0000E+00
      21.03        16.8440     0.0000E+00
      21.04        16.8360     0.0000E+00
      21.05        16.8280     0.0000E+00
      21.06        16.8201     0.0000E+00
      21.07        16.8121     0.0000E+00
      21.08        16.8041     0.0000E+00
      21.09        16.7961     0.0000E+00
      21.10        16.7882     0.0000E+00
      21.11        16.7802     0.0000E+00
      21.12        16.7723     0.0000E+00
      21.13        16.7643     0.0000E+00
      21.14        16.7564     0.0000E+00
      21.15        16.7485     0.0000E+00
      21.16        16.7406     0.0000E+00
      21.17        16.7327     0.0000E+00
      21.18        16.7248     0.0000E+00
      21.19        16.7169     0.0000E+00
      21.20        16.7090     0.0000E+00
      21.21        16.7011     0.0000E+00
      21.22        16.6932     0.0000E+00
      21.23        16.6854     0.0000E+00
      21.24        16.6775     0.0000E+00
      21.25        16.6697     0.0000E+00
      21.26        16.6618     0.0000E+00
      21.27        16.6540     0.0000E+00
      21.28        16.6462     0.0000E+00
      21.29        16.6384     0.0000E+00
      21.30        16.6305     0.0000E+00
      21.31        16.6227     0.0000E+00
      21.32        16.6149     0.0000E+00
      21.33        16.6072     0.0000E+00
      21.34        16.5994     0.0000E+00
      21.35        16.5916     0.0000E+00
      21.36        16.5838     0.0000E+00
      21.37        16.5761     0.0000E+00
      21.38        16.5683     0.0000E+00
      21.39        16.5606     0.0000E+00
      21.40        16.5528     0.0000E+00
      21.41        16.5451     0.0000E+00
      21.42        16.5374     0.0000E+00
      21.43        16.5297     0.0000E+00
      21.44        16.5220     0.0000E+00
      21.45        16.5143     0.0000E+00
      21.46        16.5066     0.0000E+00
      21.47        16.4989     0.0000E+00
      21.48        16.4912     0.0000E+00
      21.49        16.4835     0.0000E+00
      21.50        16.4759     0.0000E+00
      21.51        16.4682     0.0000E+00
      21.52        16.4605     0.0000E+00
      21.53        16.4529     0.0000E+00
      21.54        16.4453     0.0000E+00
      21.55        16.4376     0.0000E+00
      21.56        16.4300     0.0000E+00
      21.57        16.4224     0.0000E+00
      21.58        16.4148     0.0000E+00
      21.59        16.4072     0.0000E+00
      21.60        16.3996     0.0000E+00
      21.61        16.3920     0.0000E+00
      21.62        16.3844     0.0000E+00
      21.63        16.3768     0.0000E+00
      21.64        16.3693     0.0000E+00
      21.65        16.3617     0.0000E+00
      21.66        16.3542     0.0000E+00
      21.67        16.3466     0.0000E+00
      21.68        16.3391     0.0000E+00
      21.69        16.3315     0.0000E+00
      21.70        16.3240     0.0000E+00
      21.71        16.3165     0.0000E+00
      21.72        16.3090     0.0000E+00
      21.73        16.3015     0.0000E+00
      21.74        16.2940     0.0000E+00
      21.75        16.2865     0.0000E+00
      21.76        16.2790     0.0000E+00
      21.77        16.2715     0.0000E+00
      21.78        16.2640     0.0000E+00
      21.79        16.2566     0.0000E+00
      21.80        16.2491     0.0000E+00
      21.81        16.2417     0.0000E+00
      21.82        16.2342     0.0000E+00
      21.83        16.2268     0.0000E+00
      21.84        16.2194     0.0000E+00
      21.85        16.2119     0.0000E+00
      21.86        16.2045     0.0000E+00
      21.87        16.1971     0.0000E+00
      21.88        16.1897     0.0000E+00
      21.89        16.1823     0.0000E+00
      21.90        16.1749     0.0000E+00
      21.91        16.1676     0.0000E+00
      21.92        16.1602     0.0000E+00
      21.93        16.1528     0.0000E+00
      21.94        16.1454     0.0000E+00
      21.95        16.1381     0.0000E+00
      21.96        16.1307     0.0000E+00
      21.97        16.1234     0.0000E+00
      21.98        16.1161     0.0000E+00
      21.99        16.1087     0.0000E+00
      22.00        16.1014     0.0000E+00
      22.01        16.0941     0.0000E+00
      22.02        16.0868     0.0000E+00
      22.03        16.0795     0.0000E+00
      22.04        16.0722     0.0000E+00
      22.05        16.0649     0.0000E+00
      22.06        16.0576     0.0000E+00
      22.07        16.0503     0.0000E+00
      22.08        16.0431     0.0000E+00
      22.09        16.0358     0.0000E+00
      22.10        16.0286     0.0000E+00
      22.11        16.0213     0.0000E+00
      22.12        16.0141     0.0000E+00
      22.13        16.0068     0.0000E+00
      22.14        15.9996     0.0000E+00
      22.15        15.9924     0.0000E+00
      22.16        15.9852     0.0000E+00
      22.17        15.9780     0.0000E+00
      22.18        15.9707     0.0000E+00
      22.19        15.9636     0.0000E+00
      22.20        15.9564     0.0000E+00
      22.21        15.9492     0.0000E+00
      22.22        15.9420     0.0000E+00
      22.23        15.9348     0.0000E+00
      22.24        15.9277     0.0000E+00
      22.25        15.9205     0.0000E+00
      22.26        15.9134     0.0000E+00
      22.27        15.9062     0.0000E+00
      22.28        15.8991     0.0000E+00
      22.29        15.8919     0.0000E+00
      22.30        15.8848     0.0000E+00
      22.31        15.8777     0.0000E+00
      22.32        15.8706     0.0000E+00
      22.33        15.8635     0.0000E+00
      22.34        15.8564     0.0000E+00
      22.35        15.8493     0.0000E+00
      22.36        15.8422     0.0000E+00
      22.37        15.8351     0.0000E+00
      22.38        15.8280     0.0000E+00
      22.39        15.8210     0.0000E+00
      22.40        15.8139     0.0000E+00
      22.41        15.8068     0.0000E+00
      22.42        15.7998     0.0000E+00
      22.43        15.7927     0.0000E+00
      22.44        15.7857     0.0000E+00
      22.45        15.7787     0.0000E+00
      22.46        15.7716     0.0000E+00
      22.47        15.7646     0.0000E+00
      22.48        15.7576     0.0000E+00
      22.49        15.7506     0.0000E+00
      22.50        15.7436     0.0000E+00
      22.51        15.7366     0.0000E+00
      22.52        15.7296     0.0000E+00
      22.53        15.7226     0.0000E+00
      22.54        15.7157     0.0000E+00
      22.55        15.7087     0.0000E+00
      22.56        15.7017     0.0000E+00
      22.57        15.6948     0.0000E+00
      22.58        15.6878     0.0000E+00
      22.59        15.6809     0.0000E+00
      22.60        15.6739     0.0000E+00
      22.61        15.6670     0.0000E+00
      22.62        15.6601     0.0000E+00
      22.63        15.6532     0.0000E+00
      22.64        15.6463     0.0000E+00
      22.65        15.6393     0.0000E+00
      22.66        15.6324     0.0000E+00
      22.67        15.6256     0.0000E+00
      22.68        15.6187     0.0000E+00
      22.69        15.6118     0.0000E+00
      22.70        15.6049     0.0000E+00
      22.71        15.5980     0.0000E+00
      22.72        15.5912     0.0000E+00
      22.73        15.5843     0.0000E+00
      22.74        15.5775     0.0000E+00
      22.75        15.5706     0.0000E+00
      22.76        15.5638     0.0000E+00
      22.77        15.5569     0.0000E+00
      22.78        15.5501     0.0000E+00
      22.79        15.5433     0.0000E+00
      22.80        15.5365     0.0000E+00
      22.81        15.5296     0.0000E+00
      22.82        15.5228     0.0000E+00
      22.83        15.5160     0.0000E+00
      22.84        15.5093     0.0000E+00
      22.85        15.5025     0.0000E+00
      22.86        15.4957     0.0000E+00
      22.87        15.4889     0.0000E+00
      22.88        15.4821     0.0000E+00
      22.89        15.4754     0.0000E+00
      22.90        15.4686     0.0000E+00
      22.91        15.4619     0.0000E+00
      22.92        15.4551     0.0000E+00
      22.93        15.4484     0.0000E+00
      22.94        15.4416     0.0000E+00
      22.95        15.4349     0.0000E+00
      22.96        15.4282     0.0000E+00
      22.97        15.4215     0.0000E+00
      22.98        15.4148     0.0000E+00
      22.99        15.4081     0.0000E+00
      23.00        15.4014     0.0000E+00
      23.01        15.3947     0.0000E+00
      23.02        15.3880     0.0000E+00
      23.03        15.3813     0.0000E+00
      23.04        15.3746     0.0000E+00
      23.05        15.3680     0.0000E+00
      23.06        15.3613     0.0000E+00
      23.07        15.3546     0.0000E+00
      23.08        15.3480     0.0000E+00
      23.09        15.3413     0.0000E+00
      23.10        15.3347     0.0000E+00
      23.11        15.3281     0.0000E+00
      23.12        15.3214     0.0000E+00
      23.13        15.3148     0.0000E+00
      23.14        15.3082     0.0000E+00
      23.15        15.3016     0.0000E+00
      23.16        15.2950     0.0000E+00
      23.17        15.2884     0.0000E+00
      23.18        15.2818     0.0000E+00
      23.19        15.2752     0.0000E+00
      23.20        15.2686     0.0000E+00
      23.21        15.2620     0.0000E+00
      23.22        15.2554     0.0000E+00
      23.23        15.2489     0.0000E+00
      23.24        15.2423     0.0000E+00
      23.25        15.2358     0.0000E+00
      23.26        15.2292     0.0000E+00
      23.27        15.2227     0.0000E+00
      23.28        15.2161     0.0000E+00
      23.29        15.2096     0.0000E+00
      23.30        15.2031     0.0000E+00
      23.31        15.1965     0.0000E+00
      23.32        15.1900     0.0000E+00
      23.33        15.1835     0.0000E+00
      23.34        15.1770     0.0000E+00
      23.35        15.1705     0.0000E+00
      23.36        15.1640     0.0000E+00
      23.37        15.1575     0.0000E+00
      23.38        15.1510     0.0000E+00
      23.39        15.1446     0.0000E+00
      23.40        15.1381     0.0000E+00
      23.41        15.1316     0.0000E+00
      23.42        15.1252     0.0000E+00
      23.43        15.1187     0.0000E+00
      23.44        15.1123     0.0000E+00
      23.45        15.1058     0.0000E+00
      23.46        15.0994     0.0000E+00
      23.47        15.0929     0.0000E+00
      23.48        15.0865     0.0000E+00
      23.49        15.0801     0.0000E+00
      23.50        15.0737     0.0000E+00
      23.51        15.0673     0.0000E+00
      23.52        15.0609     0.0000E+00
      23.53        15.0545     0.0000E+00
      23.54        15.0481     0.0000E+00
      23.55        15.0417     0.0000E+00
      23.56        15.0353     0.0000E+00
      23.57        15.0289     0.0000E+00
      23.58        15.0225     0.0000E+00
      23.59        15.0162     0.0000E+00
      23.60        15.0098     0.0000E+00
      23.61        15.0034     0.0000E+00
      23.62        14.9971     0.0000E+00
      23.63        14.9907     0.0000E+00
      23.64        14.9844     0.0000E+00
      23.65        14.9781     0.0000E+00
      23.66        14.9717     0.0000E+00
      23.67        14.9654     0.0000E+00
      23.68        14.9591     0.0000E+00
      23.69        14.9528     0.0000E+00
      23.70        14.9465     0.0000E+00
      23.71        14.9402     0.0000E+00
      23.72        14.9339     0.0000E+00
      23.73        14.9276     0.0000E+00
      23.74        14.9213     0.0000E+00
      23.75        14.9150     0.0000E+00
      23.76        14.9087     0.0000E+00
      23.77        14.9025     0.0000E+00
      23.78        14.8962     0.0000E+00
      23.79        14.8899     0.0000E+00
      23.80        14.8837     0.0000E+00
      23.81        14.8774     0.0000E+00
      23.82        14.8712     0.0000E+00
      23.83        14.8649     0.0000E+00
      23.84        14.8587     0.0000E+00
      23.85        14.8525     0.0000E+00
      23.86        14.8462     0.0000E+00
      23.87        14.8400     0.0000E+00
      23.88        14.8338     0.0000E+00
      23.89        14.8276     0.0000E+00
      23.90        14.8214     0.0000E+00
      23.91        14.8152     0.0000E+00
      23.92        14.8090     0.0000E+00
      23.93        14.8028     0.0000E+00
      23.94        14.7966     0.0000E+00
      23.95        14.7905     0.0000E+00
      23.96        14.7843     0.0000E+00
      23.97        14.7781     0.0000E+00
      23.98        14.7720     0.0000E+00
      23.99        14.7658     0.0000E+00
      24.00        14.7596     0.0000E+00
      24.01        14.7535     0.0000E+00
      24.02        14.7474     0.0000E+00
      24.03        14.7412     0.0000E+00
      24.04        14.7351     0.0000E+00
      24.05        14.7290     0.0000E+00
      24.06        14.7228     0.0000E+00
      24.07        14.7167     0.0000E+00
      24.08        14.7106     0.0000E+00
      24.09        14.7045     0.0000E+00
      24.10        14.6984     0.0000E+00
      24.11        14.6923     0.0000E+00
      24.12        14.6862     0.0000E+00
      24.13        14.6801     0.0000E+00
      24.14        14.6740     0.0000E+00
      24.15        14.6680     0.0000E+00
      24.16        14.6619     0.0000E+00
      24.17        14.6558     0.0000E+00
      24.18        14.6498     0.0000E+00
      24.19        14.6437     0.0000E+00
      24.20        14.6377     0.0000E+00
      24.21        14.6316     0.0000E+00
      24.22        14.6256     0.0000E+00
      24.23        14.6195     0.0000E+00
      24.24        14.6135     0.0000E+00
      24.25        14.6075     0.0000E+00
      24.26        14.6015     0.0000E+00
      24.27        14.5954     0.0000E+00
      24.28        14.5894     0.0000E+00
      24.29        14.5834     0.0000E+00
      24.30        14.5774     0.0000E+00
      24.31        14.5714     0.0000E+00
      24.32        14.5654     0.0000E+00
      24.33        14.5595     0.0000E+00
      24.34        14.5535     0.0000E+00
      24.35        14.5475     0.0000E+00
      24.36        14.5415     0.0000E+00
      24.37        14.5356     0.0000E+00
      24.38        14.5296     0.0000E+00
      24.39        14.5236     0.0000E+00
      24.40        14.5177     0.0000E+00
      24.41        14.5117     0.0000E+00
      24.42        14.5058     0.0000E+00
      24.43        14.4999     0.0000E+00
      24.44        14.4939     0.0000E+00
      24.45        14.4880     0.0000E+00
      24.46        14.4821     0.0000E+00
      24.47        14.4761     0.0000E+00
      24.48        14.4702     0.0000E+00
      24.49        14.4643     0.0000E+00
      24.50        14.4584     0.0000E+00
      24.51        14.4525     0.0000E+00
      24.52        14.4466     0.0000E+00
      24.53        14.4407     0.0000E+00
      24.54        14.4349     0.0000E+00
      24.55        14.4290     0.0000E+00
      24.56        14.4231     0.0000E+00
      24.57        14.4172     0.0000E+00
      24.58        14.4114     0.0000E+00
      24.59        14.4055     0.0000E+00
      24.60        14.3997     0.0000E+00
      24.61        14.3938     0.0000E+00
      24.62        14.3880     0.0000E+00
      24.63        14.3821     0.0000E+00
      24.64        14.3763     0.0000E+00
      24.65        14.3704     0.0000E+00
      24.66        14.3646     0.0000E+00
      24.67        14.3588     0.0000E+00
      24.68        14.3530     0.0000E+00
      24.69        14.3472     0.0000E+00
      24.70        14.3414     0.0000E+00
      24.71        14.3355     0.0000E+00
      24.72        14.3298     0.0000E+00
      24.73        14.3240     0.0000E+00
      24.74        14.3182     0.0000E+00
      24.75        14.3124     0.0000E+00
      24.76        14.3066     0.0000E+00
      24.77        14.3008     0.0000E+00
      24.78        14.2951     0.0000E+00
      24.79        14.2893     0.0000E+00
      24.80        14.2835     0.0000E+00
      24.81        14.2778     0.0000E+00
      24.82        14.2720     0.0000E+00
      24.83        14.2663     0.0000E+00
      24.84        14.2605     0.0000E+00
      24.85        14.2548     0.0000E+00
      24.86        14.2491     0.0000E+00
      24.87        14.2433     0.0000E+00
      24.88        14.2376     0.0000E+00
      24.89        14.2319     0.0000E+00
      24.90        14.2262     0.0000E+00
      24.91        14.2205     0.0000E+00
      24.92        14.2147     0.0000E+00
      24.93        14.2090     0.0000E+00
      24.94        14.2033     0.0000E+00
      24.95        14.1977     0.0000E+00
      24.96        14.1920     0.0000E+00
      24.97        14.1863     0.0000E+00
      24.98        14.1806     0.0000E+00
      24.99        14.1749     0.0000E+00
      25.00        14.1693     0.0000E+00
      25.01        14.1636     0.0000E+00